# Koester WD models
# teff = 5500 K (value for the effective temperature for the model. Temperatures are given in K)
# logg = 7.5 log(cm/s2) (value for Log(G) for the model.)
#
# column 1: WAVELENGTH (ANGSTROM), Wavelength in Angstrom
# column 2: FLUX (ERG/CM2/S/A), Flux in erg/cm2/s/A
         899.23      0.00295616 
        909.241      0.00412293 
        919.251      0.00570686 
        929.261      0.00786812 
        939.271       0.0108676 
         949.28       0.0144619 
        959.289       0.0212021 
        969.297       0.0295225 
        979.305       0.0404973 
        989.312       0.0543307 
        999.319       0.0718617 
        1009.33        0.094085 
        1019.33         0.12162 
        1029.34        0.155333 
        1039.34        0.201901 
        1049.35        0.256512 
        1059.36        0.324454 
        1069.36        0.407521 
        1079.36         0.51055 
        1089.37        0.634998 
        1099.37        0.787937 
        1109.38        0.971358 
        1119.38         1.19802 
        1129.38         1.46833 
        1139.39         1.78785 
        1149.39         2.15851 
        1159.39         2.55992 
        1169.39         2.96728 
         1179.4         3.41061 
         1189.4         4.05416 
         1199.4         4.84079 
         1209.4         5.73605 
        1219.41         6.81471 
        1229.41         8.20986 
        1239.41         9.77252 
        1249.41         11.5585 
        1259.41         13.6243 
        1269.41         16.1602 
        1279.42         19.1817 
        1289.42         22.5816 
        1299.42         26.3634 
        1309.42         30.7244 
        1319.42         35.5886 
        1329.42         41.2054 
        1339.42         47.4519 
        1349.42         54.5277 
        1359.42         62.6449 
        1369.42         71.5262 
        1379.42         81.5686 
        1389.42         92.9481 
        1399.42         105.532 
        1409.42           119.4 
        1419.42         135.151 
        1429.42         152.632 
        1439.42         171.542 
        1454.42         204.055 
        1464.42         229.215 
        1474.42         256.769 
        1489.42         301.199 
        1504.42         352.251 
        1514.42         392.181 
        1529.42         461.176 
        1544.42         536.854 
        1559.42         616.095 
        1570.19         677.654 
        1584.41         770.831 
        1599.41         882.728 
        1614.41         1016.81 
        1629.41         1184.42 
        1644.41         1392.15 
        1659.41         1633.51 
        1670.17         1828.32 
         1684.4         2114.65 
         1699.4          2465.1 
         1714.4            2846 
         1729.4         3259.37 
         1744.4         3699.19 
        1759.39         4154.72 
         1771.7         4557.63 
        1784.39         5024.79 
        1799.39         5628.45 
        1819.38         6508.31 
        1834.77         7254.63 
        1845.54         7813.46 
         1856.3            8425 
        1867.07         9066.07 
        1882.44         10057.7 
        1894.73         10920.2 
        1906.98         11842.5 
        1919.37         12843.5 
        1931.76           13901 
        1944.14         15088.8 
        1956.53         16349.1 
        1968.59         17612.2 
        1980.65         18950.1 
        1992.71         20374.2 
        2004.77           21890 
        2015.84         23369.2 
         2027.8           25154 
        2047.42         28141.5 
        2067.03         31396.4 
        2086.65         35056.1 
        2106.26         39130.4 
        2121.25         42511.4 
        2136.23         46278.8 
        2155.85         51462.7 
        2166.22         54377.8 
        2178.22         57908.7 
        2191.02           61896 
        2203.82         66119.2 
         2214.7         69907.7 
        2225.57         73774.6 
        2236.45         77851.2 
        2247.33         82140.1 
        2259.77         87293.6 
         2272.2         93751.1 
        2288.79          102753 
        2305.37          112564 
         2320.9          121966 
        2336.42          131313 
        2357.06          144789 
        2367.65          152121 
        2378.25          159740 
        2388.85          167684 
        2399.45          176162 
         2419.1          193068 
        2440.98          214057 
        2451.59          224465 
        2465.39          239945 
        2475.96          252367 
        2492.99          273614 
        2510.01          296560 
        2527.04          319544 
        2543.14          342578 
        2555.21          360686 
        2567.28          381923 
        2579.35          405548 
        2591.43          430546 
        2605.66          462772 
        2618.66          493152 
        2631.66          524319 
        2644.67          557105 
        2657.67          591615 
        2670.67          620326 
        2683.68          649964 
        2703.18          695998 
        2716.18          727778 
        2729.18          760448 
        2754.27          825959 
           2769          867485 
        2783.72          910666 
        2798.45          955242 
        2813.18      1.00112e+6 
        2827.91      1.04822e+6 
        2842.64      1.09661e+6 
        2854.55      1.13624e+6 
        2866.45      1.17911e+6 
        2878.36      1.22288e+6 
        2902.18      1.31313e+6 
           2926      1.40693e+6 
        2946.65      1.49113e+6 
        2959.32      1.54225e+6 
        2971.99      1.59235e+6 
        2997.34       1.6953e+6 
        3022.68      1.80123e+6 
        3044.64      1.89531e+6 
         3058.2      1.95751e+6 
        3071.77      2.02371e+6 
         3098.9      2.15895e+6 
        3124.38      2.28919e+6 
        3149.86      2.42154e+6 
        3175.34      2.56414e+6 
        3200.82      2.70966e+6 
        3224.56      2.84764e+6 
        3236.43      2.91747e+6 
        3248.29      2.98778e+6 
        3260.16      3.03891e+6 
        3272.03      3.09012e+6 
         3283.9      3.14142e+6 
        3295.77       3.1928e+6 
        3313.57      3.26999e+6 
         3327.9      3.33216e+6 
        3346.73      3.41403e+6 
        3361.29       3.4768e+6 
        3403.23      3.65757e+6 
        3445.17      3.83802e+6 
        3514.48      4.12224e+6 
        3529.04      4.18133e+6 
         3543.6      4.24024e+6 
        3554.17      4.28174e+6 
        3572.73      4.35434e+6 
        3591.28       4.4265e+6 
        3617.82      4.52741e+6 
        3628.39      4.56734e+6 
        3638.96      4.60715e+6 
        3651.32      4.65355e+6 
         3663.4      4.69844e+6 
        3673.95      4.73721e+6 
         3684.5      4.77553e+6 
         3695.3      4.81452e+6 
        3705.37      4.85052e+6 
        3715.64      4.88678e+6 
        3725.75      4.91983e+6 
        3735.82       4.9504e+6 
        3746.45      4.98238e+6 
        3757.47      5.01527e+6 
        3768.55      5.04775e+6 
        3778.93      5.07826e+6 
        3790.45      5.11147e+6 
        3800.56      5.13977e+6 
        3811.59      5.17207e+6 
        3822.57      5.20323e+6 
        3832.73      5.22714e+6 
        3842.75      5.26028e+6 
        3853.31      5.29126e+6 
        3863.68      5.32026e+6 
        3873.85      5.34743e+6 
         3884.4      5.36537e+6 
        3894.46      5.39503e+6 
        3908.89      5.44256e+6 
        3923.89      5.48381e+6 
        3935.81       5.5161e+6 
        3946.58        5.544e+6 
        3957.31      5.56781e+6 
        3967.38      5.52835e+6 
         3977.6      5.60953e+6 
        3987.66      5.64843e+6 
        3998.87      5.67837e+6 
        4013.86       5.7155e+6 
        4025.34      5.74352e+6 
         4035.9      5.76872e+6 
        4048.86      5.79878e+6 
        4063.85      5.83224e+6 
        4075.42      5.85615e+6 
         4085.7      5.87248e+6 
        4096.52      5.83202e+6 
        4106.79      5.84999e+6 
        4117.77      5.94103e+6 
        4128.84      5.97101e+6 
        4143.83      6.00418e+6 
        4158.83        6.035e+6 
        4173.82      6.06453e+6 
        4188.82      6.09306e+6 
        4203.81      6.12061e+6 
        4216.52      6.14357e+6 
        4228.81      6.16522e+6 
        4243.81      6.19079e+6 
         4258.8      6.21542e+6 
         4273.8      6.23901e+6 
        4288.79      6.26132e+6 
        4303.79      6.28143e+6 
        4314.07       6.2917e+6 
        4326.14      6.28777e+6 
        4336.17      6.10471e+6 
        4346.38      6.20377e+6 
        4357.43      6.33741e+6 
        4367.98      6.36367e+6 
        4378.77      6.38089e+6 
        4393.77      6.40078e+6 
        4408.76      6.41727e+6 
        4423.76      6.43169e+6 
        4438.75      6.44548e+6 
        4453.75      6.45874e+6 
        4468.74      6.47152e+6 
        4483.74      6.48381e+6 
        4498.74      6.49703e+6 
        4513.73      6.51246e+6 
        4527.19      6.52562e+6 
        4538.73      6.53643e+6 
        4553.72      6.54984e+6 
        4568.72      6.56254e+6 
        4583.72      6.57457e+6 
        4596.53      6.58412e+6 
        4608.71      6.59207e+6 
         4623.7      6.60137e+6 
         4638.7      6.61016e+6 
         4653.7      6.61849e+6 
        4668.69      6.62631e+6 
        4683.69      6.63369e+6 
        4698.68      6.64042e+6 
        4713.68      6.64651e+6 
        4724.83      6.65075e+6 
        4738.67      6.65565e+6 
        4753.67      6.66046e+6 
        4768.67       6.6647e+6 
        4783.66      6.66822e+6 
        4798.66      6.67054e+6 
        4813.65      6.67064e+6 
        4828.65      6.66461e+6 
        4839.16      6.64676e+6 
        4850.22      6.55292e+6 
        4860.35       5.1918e+6 
        4870.86      6.51846e+6 
        4882.36      6.65056e+6 
        4893.63      6.67519e+6 
        4908.63      6.68616e+6 
         4921.7      6.69046e+6 
        4933.62      6.69279e+6 
        4948.62      6.69464e+6 
        4963.61      6.69571e+6 
        4978.61      6.69624e+6 
        4993.61      6.69627e+6 
         5008.6      6.69586e+6 
         5023.6      6.69514e+6 
        5038.59      6.69411e+6 
        5053.59      6.69275e+6 
        5068.59      6.69112e+6 
        5083.58       6.6892e+6 
        5098.58      6.68682e+6 
        5113.57      6.68421e+6 
        5128.57      6.68138e+6 
        5143.57      6.67827e+6 
        5158.56      6.67494e+6 
        5173.56      6.67139e+6 
        5188.55       6.6675e+6 
        5203.55      6.66335e+6 
        5218.55      6.65898e+6 
        5233.54       6.6544e+6 
        5248.54      6.64962e+6 
        5263.53      6.64463e+6 
        5278.53      6.63963e+6 
        5293.52      6.63486e+6 
        5308.52      6.62986e+6 
        5323.52      6.62465e+6 
        5338.51      6.61918e+6 
        5353.51      6.61352e+6 
        5368.51      6.60768e+6 
         5383.5      6.60108e+6 
         5398.5      6.59417e+6 
        5413.49       6.5871e+6 
        5428.49      6.57988e+6 
        5443.48      6.57246e+6 
        5458.48      6.56489e+6 
        5473.48      6.55729e+6 
        5488.47      6.54978e+6 
        5503.47      6.54212e+6 
        5518.47      6.53426e+6 
        5533.46      6.52628e+6 
        5548.46      6.51811e+6 
        5563.45      6.50979e+6 
        5578.45      6.50131e+6 
        5593.44      6.49267e+6 
        5608.44      6.48387e+6 
        5623.44      6.47495e+6 
        5638.43      6.46587e+6 
        5653.43      6.45666e+6 
        5668.43      6.44743e+6 
        5682.86      6.43829e+6 
        5693.42       6.4315e+6 
        5704.77      6.42415e+6 
        5715.23      6.41733e+6 
        5728.41      6.40863e+6 
         5743.4      6.39861e+6 
         5758.4      6.38849e+6 
         5773.4      6.37794e+6 
        5788.39      6.36754e+6 
        5803.39      6.35704e+6 
        5818.39      6.34643e+6 
        5833.38      6.33571e+6 
        5848.38      6.32487e+6 
        5863.37      6.31394e+6 
        5878.37      6.30288e+6 
        5893.36      6.29176e+6 
        5908.36      6.28051e+6 
        5923.36      6.26917e+6 
        5938.35      6.25774e+6 
        5953.35      6.24618e+6 
        5968.34      6.23455e+6 
        5983.34       6.2228e+6 
        5998.34      6.21099e+6 
        6013.33      6.19905e+6 
        6028.33      6.18702e+6 
        6043.32      6.17493e+6 
        6058.32      6.16274e+6 
        6073.32      6.15045e+6 
        6088.31      6.13811e+6 
        6103.31      6.12567e+6 
         6118.3      6.11316e+6 
         6133.3       6.1006e+6 
         6148.3      6.08794e+6 
        6163.29      6.07521e+6 
        6178.29      6.06239e+6 
        6193.28      6.04951e+6 
        6208.28      6.03657e+6 
        6223.28      6.02356e+6 
        6238.27      6.01046e+6 
        6252.16      5.99827e+6 
        6262.16      5.98945e+6 
        6273.26      5.97964e+6 
        6284.63      5.96953e+6 
        6295.99      5.95938e+6 
        6306.09      5.95033e+6 
        6316.22      5.94119e+6 
        6328.25      5.93029e+6 
        6343.24      5.91659e+6 
        6358.24       5.9028e+6 
        6373.23      5.88885e+6 
        6388.23      5.87472e+6 
        6403.23      5.86036e+6 
        6418.22      5.84572e+6 
        6433.22      5.83064e+6 
        6448.22      5.81493e+6 
        6463.21      5.79822e+6 
        6478.21      5.77978e+6 
         6493.2       5.7581e+6 
         6508.2      5.72954e+6 
        6523.19      5.68336e+6 
         6536.1      5.60014e+6 
        6546.46      5.42883e+6 
        6556.84      4.81283e+6 
        6566.99      4.55377e+6 
        6577.23      5.34859e+6 
        6587.48      5.53608e+6 
        6598.17      5.60033e+6 
        6613.66       5.6281e+6 
        6623.98      5.63159e+6 
        6644.62      5.62568e+6 
        6665.26      5.61258e+6 
        6701.62      5.58343e+6 
        6721.34      5.56627e+6 
         6736.2      5.55302e+6 
        6780.49      5.51252e+6 
        6824.78      5.47121e+6 
        6913.35      5.38789e+6 
        7001.93      5.30367e+6 
        7071.86      5.23682e+6 
         7090.5      5.21894e+6 
        7109.15      5.20106e+6 
        7146.44      5.16566e+6 
        7221.02      5.09478e+6 
         7295.6      5.02388e+6 
        7346.84      4.97518e+6 
        7370.18      4.95316e+6 
        7393.51      4.93101e+6 
        7440.19      4.88722e+6 
        7533.55      4.79988e+6 
        7575.92      4.76036e+6 
         7626.9      4.71295e+6 
        7677.88      4.66567e+6 
        7728.86      4.61908e+6 
        7779.84      4.57265e+6 
        7830.82       4.5265e+6 
         7881.8      4.48045e+6 
        7903.32      4.46109e+6 
        7932.78      4.43464e+6 
        7962.25      4.40825e+6 
        8021.18       4.3561e+6 
        8077.68      4.30643e+6 
        8097.18       4.2894e+6 
        8108.49      4.27954e+6 
        8155.67      4.23861e+6 
        8200.85      4.19959e+6 
        8216.85      4.18589e+6 
        8232.84      4.17222e+6 
        8264.83      4.14499e+6 
        8289.72      4.12387e+6 
        8328.82      4.09086e+6 
        8343.44      4.07854e+6 
        8367.92        4.058e+6 
        8388.68      4.04069e+6 
        8408.65       4.0241e+6 
        8432.02      4.00475e+6 
        8467.25      3.97572e+6 
        8502.48      3.94681e+6 
        8516.58      3.93528e+6 
        8530.98      3.92354e+6 
        8545.38      3.91188e+6 
        8574.18      3.88869e+6 
        8598.39      3.86925e+6 
         8628.6      3.84512e+6 
        8646.81      3.83061e+6 
        8665.01      3.81612e+6 
        8685.59      3.79985e+6 
        8701.43      3.78735e+6 
        8750.47      3.74877e+6 
        8767.92      3.73517e+6 
        8815.35      3.69828e+6 
        8862.78      3.66197e+6 
        8900.38      3.63347e+6 
        8957.65      3.59034e+6 
        9014.91      3.54742e+6 
        9044.62      3.52556e+6 
        9072.17      3.50526e+6 
        9099.72      3.48503e+6 
        9154.81      3.44529e+6 
         9190.8       3.4195e+6 
         9209.9      3.40583e+6 
        9229.01      3.39182e+6 
        9267.22      3.36527e+6 
         9303.2      3.34005e+6 
        9343.64      3.31184e+6 
        9384.08      3.28384e+6 
        9464.96      3.22896e+6 
        9545.72      3.17364e+6 
        9561.21       3.1644e+6 
        9576.69      3.15438e+6 
        9607.66      3.13411e+6 
        9668.45      3.09448e+6 
        9729.24      3.05567e+6 
        9790.04       3.0173e+6 
        9850.83      2.97935e+6 
        9870.42      2.96722e+6 
        9911.62      2.94184e+6 
        9952.82      2.91665e+6 
        10021.1      2.87544e+6 
        10035.2      2.86638e+6 
        10049.4       2.8552e+6 
        10077.7      2.84197e+6 
          10106      2.82565e+6 
        10162.5      2.79281e+6 
        10201.1      2.77061e+6 
        10219.1      2.76026e+6 
        10237.2      2.74995e+6 
        10273.3      2.72994e+6 
        10345.5      2.69033e+6 
        10417.8      2.65127e+6 
          10490      2.61274e+6 
        10562.2      2.57475e+6 
        10634.4      2.53728e+6 
        10706.7      2.50034e+6 
        10778.9      2.46392e+6 
        10851.1      2.42794e+6 
        10908.6       2.3989e+6 
        10923.4      2.38999e+6 
        10938.1      2.37541e+6 
        10952.8      2.37573e+6 
        10967.5      2.37035e+6 
          10997       2.3569e+6 
        11055.9      2.32906e+6 
        11114.8       2.3014e+6 
        11173.7      2.27405e+6 
        11204.4      2.25994e+6 
        11232.7      2.24702e+6 
        11260.9      2.23418e+6 
        11317.4      2.20978e+6 
        11373.9      2.18564e+6 
        11430.4      2.16176e+6 
        11486.9      2.13815e+6 
        11543.3      2.11478e+6 
        11599.8      2.09168e+6 
        11656.3      2.06882e+6 
        11712.8      2.04622e+6 
        11769.3      2.02387e+6 
        11825.8      2.00178e+6 
        11882.3      1.97993e+6 
        11938.8      1.95832e+6 
        11995.3      1.93696e+6 
        12051.7      1.91583e+6 
        12108.2      1.89496e+6 
        12164.7      1.87432e+6 
        12221.2      1.85391e+6 
        12270.8      1.83621e+6 
        12284.6      1.83128e+6 
        12298.5      1.82661e+6 
        12326.3      1.81732e+6 
        12381.8      1.79886e+6 
        12437.3      1.78059e+6 
        12492.8       1.7625e+6 
        12548.3      1.74459e+6 
        12603.8      1.72685e+6 
        12659.3      1.70926e+6 
        12714.8       1.6917e+6 
        12746.5       1.6815e+6 
        12770.3      1.67325e+6 
        12782.3      1.66847e+6 
        12794.2      1.66225e+6 
        12806.1      1.65145e+6 
          12818      1.62945e+6 
        12830.8       1.6447e+6 
        12843.6      1.64771e+6 
        12856.4      1.64619e+6 
          12882      1.63998e+6 
        12907.6      1.63277e+6 
        12933.2      1.62532e+6 
        12984.4      1.61031e+6 
        13035.6      1.59534e+6 
        13086.7      1.58049e+6 
        13137.9      1.56577e+6 
        13189.1      1.55119e+6 
        13240.3      1.53675e+6 
        13274.6      1.52714e+6 
        13291.5      1.52245e+6 
        13308.4      1.51777e+6 
        13342.1      1.50903e+6 
        13409.5      1.49168e+6 
          13477      1.47454e+6 
        13544.4      1.45759e+6 
        13611.9      1.44084e+6 
        13679.3      1.42428e+6 
        13746.8       1.4079e+6 
        13814.3      1.39173e+6 
        13881.7      1.37573e+6 
        13949.2      1.35994e+6 
        14016.6      1.34433e+6 
        14084.1       1.3289e+6 
        14151.5      1.31366e+6 
          14219       1.2986e+6 
