# Koester WD models
# teff = 5500 K (value for the effective temperature for the model. Temperatures are given in K)
# logg = 9 log(cm/s2) (value for Log(G) for the model.)
#
# column 1: WAVELENGTH (ANGSTROM), Wavelength in Angstrom
# column 2: FLUX (ERG/CM2/S/A), Flux in erg/cm2/s/A
         899.23      0.00330964 
        909.241      0.00461022 
        919.251        0.006372 
        929.261      0.00871647 
        939.271       0.0114571 
         949.28       0.0160952 
        959.289       0.0217295 
        969.297       0.0302626 
        979.305        0.040868 
        989.312       0.0541086 
        999.319       0.0709614 
        1009.33       0.0924348 
        1019.33        0.119546 
        1029.34        0.153605 
        1039.34        0.197091 
        1049.35        0.250785 
        1059.36        0.317587 
        1069.36         0.40001 
        1079.36        0.501684 
        1089.37        0.625843 
        1099.37        0.777708 
        1109.38        0.961384 
        1119.38         1.18545 
        1129.38         1.45447 
        1139.39         1.77513 
        1149.39         2.15306 
        1159.39         2.57325 
        1169.39          2.9931 
         1179.4         3.48773 
         1189.4         4.21972 
         1199.4         5.07886 
         1209.4         6.16267 
        1219.41         7.35111 
        1229.41         8.47328 
        1239.41         9.98973 
        1249.41         11.7771 
        1259.41          13.851 
        1269.41         16.3351 
        1279.42         19.3298 
        1289.42         22.7404 
        1299.42         26.5453 
        1309.42         30.9355 
        1319.42         35.8333 
        1329.42         41.4825 
        1339.42         47.7833 
        1349.42         54.9059 
        1359.42         63.0628 
        1369.42         72.0037 
        1379.42         82.1024 
        1389.42         93.5717 
        1399.42         106.247 
        1409.42         120.223 
        1419.42         136.077 
        1429.42         153.656 
        1439.42         172.705 
        1454.42         205.422 
        1464.42         230.739 
        1474.42         258.442 
        1489.42         303.248 
        1504.42         354.648 
        1514.42         394.785 
        1529.42         464.107 
        1544.42         540.238 
        1559.42         620.216 
        1570.19          682.26 
        1584.41           776.3 
        1599.41          889.52 
        1614.41         1023.94 
        1629.41         1191.99 
        1644.41         1395.41 
        1659.41         1609.51 
        1670.17         1767.89 
         1684.4         1990.68 
         1699.4          2254.9 
         1714.4         2551.76 
         1729.4         2880.78 
         1744.4         3242.85 
        1759.39         3634.13 
         1771.7         3982.63 
        1784.39         4373.95 
        1799.39         4879.21 
        1819.38         5621.22 
        1834.77         6251.24 
        1845.54         6723.92 
         1856.3         7229.46 
        1867.07         7763.38 
        1882.44         8584.59 
        1894.73         9293.93 
        1906.98         10047.8 
        1919.37         10860.8 
        1931.76         11718.5 
        1944.14         12644.5 
        1956.53         13628.1 
        1968.59         14625.9 
        1980.65           15680 
        1992.71         16793.1 
        2004.77         17968.4 
        2015.84           19104 
        2031.63         20838.1 
        2047.42         22663.6 
        2059.38         24127.9 
        2074.69         26112.3 
        2089.99         28228.1 
         2105.3         30473.9 
        2116.25         32163.3 
         2127.2         33927.3 
        2138.15         35785.3 
         2149.1         37697.9 
        2165.47           40699 
        2181.85         43875.2 
        2198.22         47237.9 
         2214.5         50770.3 
        2226.91         53551.9 
        2239.33         56432.4 
        2251.62         59375.5 
        2263.91         62426.9 
        2276.21         65692.6 
         2288.5           69040 
        2300.79         72501.4 
        2312.95         76105.4 
        2324.96         79713.8 
        2336.98         83503.2 
           2349         87497.8 
        2359.67         91169.3 
         2370.4         95100.1 
        2381.12         99205.2 
        2391.85          103462 
        2402.58          108098 
        2415.97          114198 
        2429.36          120903 
        2442.71          128276 
        2456.19          136288 
        2474.59          149480 
        2492.99          164666 
        2510.01          180686 
        2521.76          191713 
         2533.5          203710 
        2545.24          216882 
        2556.99          230622 
        2568.21          245133 
        2586.17          270616 
        2604.12          298403 
        2622.08          328278 
        2640.03          360344 
        2653.34          385301 
        2666.33          408153 
        2679.32          430285 
         2705.3          475851 
        2722.61          507345 
        2739.93          539481 
        2756.11          570089 
        2772.29          602771 
        2788.47          636292 
        2804.64          670686 
        2820.82          706173 
           2837          742635 
        2851.81          776793 
        2862.75          804072 
        2873.68          832384 
        2895.55          890670 
        2917.41          951189 
        2939.28      1.01396e+6 
        2952.98      1.05448e+6 
        2980.39      1.13396e+6 
         3007.8      1.21729e+6 
        3018.99      1.25228e+6 
         3035.2      1.30388e+6 
        3051.42      1.35654e+6 
        3067.64      1.41732e+6 
        3083.85       1.4796e+6 
        3100.07      1.54334e+6 
        3115.14      1.60389e+6 
         3132.5      1.67519e+6 
        3149.86      1.74824e+6 
        3167.21      1.83138e+6 
        3184.57      1.91685e+6 
        3201.93      2.00434e+6 
        3224.99      2.12362e+6 
        3236.64      2.18521e+6 
        3248.29      2.24764e+6 
        3259.95      2.29401e+6 
         3271.6       2.3407e+6 
        3283.26       2.3877e+6 
        3306.56      2.48259e+6 
        3346.73      2.64869e+6 
         3386.9      2.82132e+6 
        3408.95      2.91731e+6 
        3419.15      2.96196e+6 
        3445.17      3.07649e+6 
        3481.38      3.23571e+6 
        3495.92      3.30005e+6 
         3543.6      3.51211e+6 
        3591.28      3.72492e+6 
        3635.88      3.92429e+6 
        3647.12      3.97521e+6 
        3658.96       4.0289e+6 
        3671.11      4.08372e+6 
        3682.58      4.13518e+6 
         3693.5      4.18391e+6 
        3703.57      4.22862e+6 
        3713.83      4.27398e+6 
        3724.38      4.31755e+6 
        3734.43      4.35453e+6 
        3744.62      4.39192e+6 
        3754.84      4.42917e+6 
        3765.07      4.46634e+6 
         3775.5      4.50416e+6 
        3786.22      4.54284e+6 
        3796.45      4.57947e+6 
        3807.84      4.61993e+6 
        3818.92      4.65923e+6 
        3830.45      4.70139e+6 
        3840.76      4.73872e+6 
        3851.98      4.77902e+6 
        3862.01      4.81477e+6 
        3872.59      4.85219e+6 
         3884.4       4.8935e+6 
        3894.46      4.92844e+6 
        3908.89      4.97804e+6 
        3923.89      5.03189e+6 
        3935.81      5.07556e+6 
        3946.58      5.11454e+6 
        3957.31      5.15284e+6 
        3967.38      5.18809e+6 
        3977.86       5.2251e+6 
        3988.87      5.26339e+6 
        4003.87      5.31457e+6 
        4018.86      5.36568e+6 
        4032.38      5.41183e+6 
        4043.86      5.45032e+6 
        4058.85      5.49958e+6 
        4073.85      5.54752e+6 
           4084      5.57897e+6 
        4096.52      5.61607e+6 
        4106.79      5.64761e+6 
        4117.77      5.68465e+6 
        4128.84      5.72097e+6 
        4143.83      5.76847e+6 
        4158.83       5.8144e+6 
        4173.82      5.85894e+6 
        4188.82      5.90224e+6 
        4203.81       5.9443e+6 
        4216.52      5.97977e+6 
        4228.81      6.01335e+6 
        4243.81       6.0531e+6 
         4258.8      6.09145e+6 
         4273.8       6.1283e+6 
        4288.79      6.16336e+6 
        4303.79      6.19597e+6 
        4314.07      6.21536e+6 
        4326.14       6.2344e+6 
        4336.17       6.2463e+6 
        4346.17      6.26817e+6 
        4357.43      6.30021e+6 
        4367.98      6.32597e+6 
        4378.77      6.34976e+6 
        4393.77      6.37991e+6 
        4408.76      6.40379e+6 
        4423.76      6.42336e+6 
        4438.75      6.44212e+6 
        4453.75      6.46018e+6 
        4468.74      6.47765e+6 
        4483.74      6.49455e+6 
        4498.74      6.51205e+6 
        4513.73      6.53945e+6 
        4527.19      6.56282e+6 
        4538.73      6.58198e+6 
        4553.72       6.6057e+6 
        4568.72      6.62816e+6 
        4583.72       6.6494e+6 
        4596.53      6.66605e+6 
        4608.71      6.67912e+6 
         4623.7      6.69439e+6 
         4638.7      6.70887e+6 
         4653.7       6.7226e+6 
        4668.69      6.73561e+6 
        4683.69      6.74783e+6 
        4698.68      6.75876e+6 
        4713.68      6.76837e+6 
        4724.83      6.77503e+6 
        4738.67      6.78273e+6 
        4753.67      6.79018e+6 
        4768.67      6.79652e+6 
        4783.66      6.80139e+6 
        4798.66      6.80381e+6 
        4813.65      6.80224e+6 
        4828.65      6.79313e+6 
        4839.16      6.77817e+6 
        4851.78      6.74516e+6 
        4861.84      6.71057e+6 
        4872.13      6.75672e+6 
        4882.71      6.79121e+6 
        4893.63       6.8144e+6 
        4903.92      6.82857e+6 
        4915.55      6.83937e+6 
        4928.62       6.8477e+6 
        4943.62      6.85439e+6 
        4958.61      6.85923e+6 
        4973.61      6.86287e+6 
        4988.61      6.86554e+6 
         5003.6      6.86736e+6 
         5018.6      6.86862e+6 
         5033.6      6.86941e+6 
        5048.59      6.86978e+6 
        5063.59      6.86975e+6 
        5078.58      6.86934e+6 
        5093.58      6.86802e+6 
        5108.57      6.86633e+6 
        5123.57      6.86432e+6 
        5138.57      6.86206e+6 
        5153.56      6.85951e+6 
        5168.56      6.85671e+6 
        5183.56      6.85348e+6 
        5198.55      6.84977e+6 
        5213.55      6.84581e+6 
        5228.54      6.84163e+6 
        5243.54      6.83721e+6 
        5258.53      6.83259e+6 
        5273.53      6.82772e+6 
        5288.53      6.82448e+6 
        5303.52      6.82096e+6 
        5318.52      6.81713e+6 
        5333.52      6.81298e+6 
        5348.51      6.80849e+6 
        5363.51      6.80397e+6 
         5378.5        6.798e+6 
         5393.5       6.7909e+6 
        5408.49      6.78361e+6 
        5423.49      6.77613e+6 
        5438.49      6.76847e+6 
        5453.48      6.76064e+6 
        5468.48      6.75263e+6 
        5483.48      6.74563e+6 
        5498.47      6.73843e+6 
        5513.47      6.73102e+6 
        5528.46      6.72345e+6 
        5543.46      6.71566e+6 
        5558.45      6.70768e+6 
        5573.45      6.69948e+6 
        5588.45      6.69112e+6 
        5603.44      6.68258e+6 
        5618.44      6.67384e+6 
        5633.43      6.66495e+6 
        5648.43       6.6559e+6 
        5663.43       6.6467e+6 
        5673.98      6.64032e+6 
         5686.2      6.63256e+6 
        5698.42      6.62474e+6 
        5708.88      6.61795e+6 
        5723.41       6.6084e+6 
        5738.41      6.59841e+6 
         5753.4      6.58827e+6 
         5768.4      6.57664e+6 
        5783.39      6.56621e+6 
        5798.39      6.55562e+6 
        5813.39      6.54491e+6 
        5828.38      6.53404e+6 
        5843.38      6.52308e+6 
        5858.37      6.51199e+6 
        5873.37       6.5008e+6 
        5888.37      6.48949e+6 
        5903.36      6.47806e+6 
        5918.36       6.4665e+6 
        5933.35      6.45484e+6 
        5948.35      6.44306e+6 
        5963.35      6.43112e+6 
        5978.34      6.41906e+6 
        5993.34       6.4069e+6 
        6008.33      6.39465e+6 
        6023.33      6.38227e+6 
        6038.32       6.3698e+6 
        6053.32      6.35723e+6 
        6068.32      6.34454e+6 
        6083.31      6.33179e+6 
        6098.31      6.31891e+6 
        6113.31      6.30593e+6 
         6128.3      6.29286e+6 
         6143.3       6.2797e+6 
        6158.29      6.26641e+6 
        6173.29      6.25303e+6 
        6188.28      6.23952e+6 
        6203.28      6.22591e+6 
        6218.28      6.21219e+6 
        6233.27      6.19843e+6 
        6244.38      6.18812e+6 
        6256.04      6.17719e+6 
        6266.59      6.16723e+6 
        6278.26      6.15611e+6 
        6290.52      6.14433e+6 
        6302.31      6.13286e+6 
        6312.59      6.12278e+6 
        6323.25      6.11219e+6 
        6338.24      6.09705e+6 
        6353.24      6.08162e+6 
        6368.24      6.06576e+6 
        6383.23      6.04939e+6 
        6398.23      6.03239e+6 
        6413.22      6.01452e+6 
        6428.22      5.99545e+6 
        6443.22      5.97474e+6 
        6458.21      5.95168e+6 
        6473.21      5.92508e+6 
         6488.2      5.89306e+6 
         6503.2      5.85238e+6 
         6518.2      5.79768e+6 
        6532.67      5.72323e+6 
        6543.19      5.65019e+6 
        6554.43      5.55352e+6 
        6564.44      5.47432e+6 
        6574.47      5.56407e+6 
        6586.28      5.63837e+6 
        6598.17      5.69027e+6 
        6613.66      5.72998e+6 
        6623.98      5.74453e+6 
         6634.3      5.75276e+6 
        6654.94      5.75703e+6 
        6675.58      5.75166e+6 
        6711.48      5.73089e+6 
        6741.75       5.7079e+6 
        6783.26       5.6724e+6 
        6824.78      5.63451e+6 
        6907.81      5.55588e+6 
        6990.84      5.47514e+6 
         7038.6      5.42817e+6 
        7073.87      5.39336e+6 
        7109.15      5.35843e+6 
        7179.69      5.28906e+6 
        7250.24      5.21954e+6 
        7320.78      5.14998e+6 
        7389.14      5.08325e+6 
        7406.65       5.0661e+6 
        7424.15      5.04901e+6 
        7459.17      5.01486e+6 
         7529.2      4.94672e+6 
        7599.23      4.87883e+6 
        7660.63      4.81955e+6 
        7677.88      4.80296e+6 
        7695.14       4.7865e+6 
        7729.65       4.7537e+6 
        7798.67      4.68836e+6 
        7867.69      4.62339e+6 
        7911.17      4.58267e+6 
        7936.71      4.55886e+6 
        7962.25      4.53511e+6 
        8013.32      4.48808e+6 
        8046.24      4.45789e+6 
         8064.4       4.4413e+6 
        8082.55      4.42474e+6 
        8118.86      4.39188e+6 
        8180.09      4.33672e+6 
        8191.47      4.32654e+6 
        8202.85      4.31633e+6 
        8216.85      4.30389e+6 
        8232.84      4.28969e+6 
        8264.83      4.26135e+6 
        8289.72      4.23939e+6 
        8328.82      4.20505e+6 
        8343.44      4.19227e+6 
        8367.92       4.1709e+6 
        8388.68       4.1529e+6 
        8408.65      4.13569e+6 
        8432.02      4.11555e+6 
        8467.25      4.08536e+6 
        8502.48      4.05532e+6 
        8516.58      4.04332e+6 
        8530.98      4.03113e+6 
        8545.38      4.01901e+6 
        8574.18      3.99488e+6 
        8598.39      3.97468e+6 
         8628.6      3.94958e+6 
        8646.81       3.9345e+6 
        8665.01      3.91948e+6 
        8685.59      3.90255e+6 
        8701.43      3.88954e+6 
        8750.47      3.84949e+6 
        8767.92      3.83532e+6 
        8815.35      3.79702e+6 
        8862.78      3.75932e+6 
        8900.38      3.72964e+6 
        8957.65      3.68477e+6 
        9014.91      3.64038e+6 
        9044.62      3.61751e+6 
        9072.17      3.59643e+6 
        9099.72      3.57542e+6 
        9154.81       3.5341e+6 
         9190.8      3.50731e+6 
         9209.9      3.49317e+6 
        9229.01      3.47906e+6 
        9267.22      3.45101e+6 
         9303.2      3.42478e+6 
        9343.64       3.3955e+6 
        9384.08      3.36641e+6 
        9464.96      3.30942e+6 
        9545.72      3.25334e+6 
        9561.21      3.24269e+6 
        9576.69      3.23207e+6 
        9607.66      3.21093e+6 
        9668.45      3.16977e+6 
        9729.24      3.12946e+6 
        9790.04       3.0896e+6 
        9850.83      3.05021e+6 
        9870.42      3.03762e+6 
        9911.62      3.01129e+6 
        9952.82      2.98518e+6 
        10021.1      2.94275e+6 
        10035.2      2.93403e+6 
        10049.4       2.9253e+6 
        10077.7      2.90801e+6 
        10134.2      2.87367e+6 
        10144.5      2.86749e+6 
        10190.8       2.8397e+6 
        10237.2      2.81217e+6 
        10329.9      2.75902e+6 
        10422.6      2.70682e+6 
        10515.3      2.65558e+6 
          10608      2.60528e+6 
        10700.7      2.55591e+6 
        10793.4      2.50747e+6 
        10834.1      2.48648e+6 
        10886.1      2.45992e+6 
        10938.1       2.4336e+6 
        10990.1      2.40773e+6 
          11042      2.38209e+6 
          11094      2.35672e+6 
          11146      2.33162e+6 
          11198      2.30679e+6 
          11239      2.28738e+6 
          11250      2.28224e+6 
        11260.9       2.2771e+6 
        11282.8      2.26722e+6 
        11326.6      2.24759e+6 
        11414.2      2.20885e+6 
        11501.8      2.17079e+6 
        11589.4      2.13339e+6 
          11677      2.09665e+6 
        11764.6      2.06058e+6 
        11852.2      2.02515e+6 
        11939.8      1.99035e+6 
        12027.4      1.95617e+6 
          12115      1.92263e+6 
        12202.6      1.88969e+6 
        12284.6       1.8594e+6 
        12366.6      1.83087e+6 
        12448.7      1.80278e+6 
        12530.7      1.77513e+6 
        12612.7      1.74789e+6 
        12694.7      1.72102e+6 
        12735.4      1.70781e+6 
        12776.7      1.69445e+6 
        12818.1      1.68112e+6 
        12900.8      1.65561e+6 
        12983.5      1.63034e+6 
        13066.2      1.60539e+6 
        13148.9      1.58081e+6 
        13231.6      1.55661e+6 
        13308.4       1.5345e+6 
        13385.1      1.51384e+6 
        13461.9      1.49347e+6 
        13538.7      1.47337e+6 
        13615.5      1.45356e+6 
        13692.3      1.43403e+6 
        13769.1      1.41477e+6 
        13845.9      1.39578e+6 
        13922.7      1.37705e+6 
        13999.5      1.35859e+6 
        14076.2       1.3404e+6 
          14153      1.32246e+6 
        14229.8      1.30479e+6 
        14281.2      1.29311e+6 
        14306.6      1.28736e+6 
        14332.1      1.28165e+6 
          14383      1.27065e+6 
        14410.1      1.26482e+6 
        14427.1      1.26119e+6 
        14457.6      1.25469e+6 
        14505.2      1.24472e+6 
        14581.2      1.22893e+6 
        14597.2       1.2257e+6 
        14613.2       1.2225e+6 
        14645.2      1.21613e+6 
        14709.2      1.20348e+6 
        14773.2      1.19096e+6 
        14837.1      1.17857e+6 
        14901.1       1.1663e+6 
        14965.1      1.15416e+6 
        15029.1      1.14215e+6 
        15093.1      1.13027e+6 
        15157.1      1.11851e+6 
          15221      1.10688e+6 
          15285      1.09536e+6 
          15349      1.08398e+6 
          15413      1.07271e+6 
        15471.6       1.0625e+6 
        15482.4      1.06063e+6 
        15493.1      1.05871e+6 
        15514.7      1.05488e+6 
        15557.9      1.04728e+6 
