# Koester WD models
# teff = 5000 K (value for the effective temperature for the model. Temperatures are given in K)
# logg = 8.25 log(cm/s2) (value for Log(G) for the model.)
#
# column 1: WAVELENGTH (ANGSTROM), Wavelength in Angstrom
# column 2: FLUX (ERG/CM2/S/A), Flux in erg/cm2/s/A
         899.23     0.000129949 
        909.241      0.00018757 
        919.251     0.000268429 
        929.261     0.000380962 
        939.271     0.000531265 
         949.28     0.000749355 
        959.289      0.00103579 
        969.297      0.00142525 
        979.305      0.00193838 
        989.312      0.00262124 
        999.319      0.00352619 
        1009.33      0.00471987 
        1019.33      0.00628457 
        1029.34      0.00832142 
        1039.34       0.0109478 
        1049.35        0.014342 
        1059.36       0.0186761 
        1069.36       0.0242082 
        1079.36       0.0311922 
        1089.37       0.0400198 
        1099.37       0.0510525 
        1109.38       0.0648569 
        1119.38       0.0818988 
        1129.38        0.103018 
        1139.39        0.129094 
        1149.39        0.161177 
        1159.39        0.200643 
        1169.39        0.247251 
         1179.4        0.302993 
         1189.4        0.373187 
         1199.4        0.456806 
         1209.4        0.557796 
        1219.41        0.676686 
        1229.41         0.81246 
        1239.41        0.976919 
        1249.41         1.17221 
        1259.41         1.40287 
        1269.41           1.674 
        1279.42         1.99546 
        1289.42         2.37161 
        1299.42         2.80684 
        1309.42         3.31265 
        1319.42         3.89664 
        1329.42         4.57234 
        1339.42         5.34831 
        1349.42         6.23967 
        1359.42         7.26173 
        1369.42         8.42801 
        1379.42         9.75898 
        1389.42         11.2741 
        1399.42         12.9926 
        1409.42          14.938 
        1419.42         17.1405 
        1429.42         19.6239 
        1439.42         22.4155 
        1454.42         27.2592 
        1464.42         30.9867 
        1474.42         35.1538 
        1489.42         42.3044 
        1504.42         50.6616 
        1514.42         57.0454 
        1529.42         67.9919 
        1544.42         80.6497 
        1559.42         95.1777 
        1570.19         106.852 
        1584.41          124.29 
        1599.41         145.382 
        1614.41         169.707 
        1629.41         198.048 
        1644.41         229.718 
        1659.41         263.274 
        1670.17         289.411 
         1684.4         328.124 
         1699.4         374.509 
         1714.4         427.863 
         1729.4         488.225 
         1744.4         556.285 
        1759.39         631.768 
         1771.7         699.966 
        1784.39         777.123 
        1799.39         877.616 
        1814.38         988.461 
        1829.38         1110.75 
        1840.15         1206.08 
        1850.92         1308.23 
        1861.69         1418.15 
        1876.29         1578.92 
        1888.59         1726.29 
        1900.88         1885.07 
        1913.17         2056.01 
        1925.56         2240.23 
        1937.95         2440.09 
        1950.34         2654.72 
        1962.56         2878.96 
        1974.62         3115.37 
        1992.71         3499.67 
        2004.77         3776.98 
        2015.84         4047.31 
        2031.63         4463.76 
        2047.42         4908.27 
        2059.38         5268.55 
        2074.69         5761.71 
        2089.99         6292.89 
         2105.3         6863.12 
        2116.25         7296.07 
         2127.2         7751.31 
        2138.15          8234.4 
         2149.1         8734.98 
        2160.05         9258.81 
        2176.33         10083.4 
        2187.18         10664.8 
        2198.03         11272.5 
         2214.7         12259.4 
        2231.36           13305 
        2248.03         14416.8 
        2263.91         15542.8 
         2279.8         16762.1 
        2295.69         18041.1 
        2310.03         19262.7 
        2322.46         20361.4 
         2334.9         21506.7 
        2347.34         22713.4 
        2359.77         23972.6 
        2377.84         25925.9 
        2388.16         27098.5 
        2398.48         28330.7 
        2409.27         29679.3 
        2420.07         31085.1 
        2430.86         32580.5 
        2441.65         34132.8 
        2456.19         36327.8 
        2469.99         38635.9 
        2488.39         41958.5 
        2503.55         44991.7 
        2516.47         47783.3 
        2529.39         50745.8 
        2542.32         53928.6 
        2555.24         57337.8 
        2567.22         60844.8 
        2583.21           66068 
        2599.19         71714.7 
        2615.18         77910.2 
        2631.16         84599.6 
        2647.14         91849.5 
        2657.67         96971.5 
         2667.8          101453 
        2677.93          106016 
        2698.19          115419 
        2718.45          125229 
        2738.71          135648 
        2756.11          144968 
        2773.51          155021 
        2799.61          170910 
        2814.29          180360 
        2834.42          193995 
        2844.48          201047 
        2854.55          208259 
        2864.61          216178 
        2874.68          224307 
        2894.81          241156 
        2914.94          258874 
        2935.07          277547 
        2952.98          295297 
         2970.9          313028 
        2988.82          331441 
        3006.73          350548 
        3024.65          370381 
        3042.57          390977 
        3060.28          413616 
        3086.84          451331 
        3104.55          477689 
        3122.26          505042 
        3136.06          527034 
        3149.86          549603 
        3163.66          575213 
        3177.45          601662 
        3198.15          643338 
        3211.95          672304 
        3225.75          702077 
        3239.55          732679 
        3252.67          760152 
        3265.78          783403 
         3278.9          807034 
        3296.38          839075 
        3315.99          875766 
        3331.36          905134 
        3346.73          935026 
        3377.47          998590 
        3408.22      1.06436e+6 
        3432.76      1.11826e+6 
        3445.17      1.14598e+6 
        3457.57      1.17409e+6 
        3482.39      1.23117e+6 
        3520.42      1.32085e+6 
        3532.01      1.34869e+6 
        3542.29      1.37357e+6 
        3566.79      1.43401e+6 
        3591.28      1.49543e+6 
        3635.88       1.6102e+6 
        3647.12      1.64001e+6 
        3658.96      1.67171e+6 
        3671.11      1.70436e+6 
        3682.58      1.73527e+6 
         3693.5      1.76473e+6 
        3703.57      1.79198e+6 
        3713.83      1.81977e+6 
        3724.38      1.84669e+6 
        3734.43      1.86974e+6 
        3744.62      1.89316e+6 
        3754.84      1.91664e+6 
        3765.07      1.94014e+6 
         3775.5       1.9641e+6 
        3786.22      1.98873e+6 
        3796.45      2.01221e+6 
        3807.84       2.0383e+6 
        3818.92      2.06383e+6 
        3830.45      2.09144e+6 
        3840.76      2.11607e+6 
        3851.98      2.14283e+6 
        3862.01       2.1667e+6 
        3872.59      2.19183e+6 
         3884.4      2.21981e+6 
        3894.46      2.24356e+6 
        3908.89      2.27752e+6 
        3923.89      2.31457e+6 
        3935.81      2.34482e+6 
        3946.58      2.37203e+6 
        3957.31      2.39899e+6 
        3967.38      2.42414e+6 
        3977.86      2.45038e+6 
        3988.87      2.47804e+6 
        4003.87      2.51551e+6 
        4018.86      2.55331e+6 
        4032.38      2.58772e+6 
        4043.86      2.61667e+6 
        4058.85       2.6541e+6 
        4073.85      2.69105e+6 
           4084      2.71571e+6 
        4096.52      2.74552e+6 
        4106.79      2.77022e+6 
        4117.77      2.79824e+6 
        4128.84      2.82626e+6 
        4143.83      2.86351e+6 
        4158.83      2.90008e+6 
        4173.82        2.936e+6 
        4188.82      2.97129e+6 
        4203.81      3.00595e+6 
        4216.52      3.03538e+6 
        4228.81      3.06348e+6 
        4243.81      3.09713e+6 
         4258.8      3.13003e+6 
         4273.8      3.16217e+6 
        4288.79      3.19346e+6 
        4303.79      3.22371e+6 
        4314.07      3.24291e+6 
        4326.14      3.26415e+6 
        4336.17      3.28036e+6 
        4346.17      3.29933e+6 
        4357.43      3.32267e+6 
        4367.98      3.34313e+6 
        4378.77      3.36304e+6 
        4393.77      3.38968e+6 
        4408.76      3.41224e+6 
        4423.76      3.43191e+6 
        4438.75      3.45123e+6 
        4453.75      3.47017e+6 
        4468.74      3.48877e+6 
        4483.74      3.50705e+6 
        4498.74      3.52587e+6 
        4513.73      3.55195e+6 
        4527.19       3.5746e+6 
        4538.73      3.59345e+6 
        4553.72      3.61717e+6 
        4568.72      3.64007e+6 
        4583.72      3.66215e+6 
        4596.53       3.6799e+6 
        4608.71      3.69461e+6 
         4623.7      3.71217e+6 
         4638.7      3.72923e+6 
         4653.7      3.74582e+6 
        4668.69       3.7619e+6 
        4683.69      3.77755e+6 
        4698.68      3.79231e+6 
        4713.68      3.80623e+6 
        4724.83      3.81631e+6 
        4738.67       3.8285e+6 
        4753.67      3.84126e+6 
        4768.67      3.85351e+6 
        4783.66      3.86513e+6 
        4798.66      3.87581e+6 
        4813.65      3.88514e+6 
        4828.65      3.89202e+6 
        4839.16        3.894e+6 
        4851.78      3.89093e+6 
        4861.84      3.88637e+6 
        4872.13      3.90644e+6 
        4882.71      3.92354e+6 
        4893.63      3.93667e+6 
        4903.92      3.94647e+6 
        4915.55      3.95586e+6 
        4928.62      3.96522e+6 
        4943.62      3.97503e+6 
        4958.61      3.98417e+6 
        4973.61      3.99281e+6 
        4988.61      4.00094e+6 
         5003.6      4.00864e+6 
         5018.6      4.01602e+6 
         5033.6      4.02312e+6 
        5048.59      4.02994e+6 
        5063.59      4.03654e+6 
        5078.58      4.04288e+6 
        5093.58      4.04854e+6 
        5108.57      4.05394e+6 
        5123.57      4.05916e+6 
        5138.57      4.06415e+6 
        5153.56      4.06896e+6 
        5168.56      4.07358e+6 
        5183.56      4.07776e+6 
        5198.55      4.08149e+6 
        5213.55      4.08504e+6 
        5228.54      4.08844e+6 
        5243.54      4.09164e+6 
        5258.53      4.09469e+6 
        5273.53      4.09755e+6 
        5288.53      4.10204e+6 
        5303.52      4.10631e+6 
        5318.52      4.11033e+6 
        5333.52      4.11407e+6 
        5348.51      4.11756e+6 
        5363.51      4.12083e+6 
         5378.5      4.12299e+6 
         5393.5      4.12409e+6 
        5408.49      4.12504e+6 
        5423.49      4.12582e+6 
        5438.49      4.12648e+6 
        5453.48      4.12698e+6 
        5468.48      4.12736e+6 
        5483.48      4.12871e+6 
        5498.47      4.12991e+6 
        5513.47      4.13091e+6 
        5528.46      4.13179e+6 
        5543.46      4.13248e+6 
        5558.45      4.13302e+6 
        5573.45      4.13336e+6 
        5588.45      4.13355e+6 
        5603.44      4.13358e+6 
        5618.44      4.13346e+6 
        5633.43       4.1332e+6 
        5648.43      4.13277e+6 
        5663.43      4.13223e+6 
        5673.98      4.13176e+6 
         5686.2       4.1311e+6 
        5698.42      4.13038e+6 
        5708.88      4.12965e+6 
        5723.41      4.12856e+6 
        5738.41       4.1273e+6 
         5753.4      4.12592e+6 
         5768.4      4.12403e+6 
        5783.39      4.12237e+6 
        5798.39      4.12058e+6 
        5813.39      4.11869e+6 
        5828.38      4.11665e+6 
        5843.38      4.11451e+6 
        5858.37      4.11225e+6 
        5873.37      4.10989e+6 
        5888.37      4.10741e+6 
        5903.36      4.10484e+6 
        5918.36      4.10213e+6 
        5933.35      4.09931e+6 
        5948.35      4.09639e+6 
        5963.35      4.09334e+6 
        5978.34      4.09017e+6 
        5993.34       4.0869e+6 
        6008.33       4.0835e+6 
        6023.33      4.08002e+6 
        6038.32      4.07647e+6 
        6053.32      4.07279e+6 
        6068.32      4.06899e+6 
        6083.31      4.06513e+6 
        6098.31      4.06117e+6 
        6113.31      4.05712e+6 
         6128.3      4.05297e+6 
         6143.3      4.04873e+6 
        6158.29      4.04439e+6 
        6173.29      4.03993e+6 
        6188.28      4.03541e+6 
        6203.28      4.03079e+6 
        6218.28      4.02608e+6 
        6233.27      4.02127e+6 
        6244.38      4.01766e+6 
        6256.04      4.01379e+6 
        6266.59      4.01024e+6 
        6278.26      4.00625e+6 
        6290.52      4.00201e+6 
        6302.31      3.99787e+6 
        6312.59      3.99419e+6 
        6323.25      3.99033e+6 
        6338.24      3.98473e+6 
        6353.24      3.97902e+6 
        6368.24      3.97314e+6 
        6383.23      3.96705e+6 
        6398.23       3.9607e+6 
        6413.22      3.95404e+6 
        6428.22      3.94697e+6 
        6443.22      3.93934e+6 
        6458.21      3.93085e+6 
        6473.21      3.92118e+6 
         6488.2      3.90955e+6 
         6503.2      3.89473e+6 
         6518.2      3.87446e+6 
        6532.67      3.84597e+6 
        6543.19      3.81694e+6 
        6554.43      3.77799e+6 
        6564.44      3.74977e+6 
        6574.47      3.78141e+6 
        6586.28      3.81081e+6 
        6598.17      3.83032e+6 
        6613.66      3.84386e+6 
         6634.3      3.84993e+6 
        6654.94      3.84914e+6 
        6680.98      3.84349e+6 
        6696.23      3.83887e+6 
        6711.48      3.83365e+6 
        6741.98      3.82222e+6 
        6781.19       3.8062e+6 
        6802.98      3.79683e+6 
        6824.78      3.78728e+6 
        6868.37      3.76784e+6 
        6955.56      3.72744e+6 
        6976.35      3.71757e+6 
        7042.75      3.68553e+6 
        7109.15      3.65282e+6 
        7175.54      3.61987e+6 
        7241.94      3.58641e+6 
        7308.33      3.55248e+6 
        7355.95      3.52788e+6 
        7374.73       3.5183e+6 
        7393.51       3.5085e+6 
        7431.08      3.48905e+6 
        7506.22      3.44985e+6 
        7581.35      3.41029e+6 
         7635.1      3.38183e+6 
        7656.49      3.37046e+6 
        7677.88      3.35905e+6 
        7720.67      3.33647e+6 
        7806.23      3.29113e+6 
        7821.36      3.28309e+6 
         7891.8      3.24561e+6 
        7962.25      3.20804e+6 
        7982.84      3.19714e+6 
        8032.69      3.17068e+6 
        8082.55      3.14426e+6 
        8161.68      3.10248e+6 
        8182.26      3.09161e+6 
        8200.85      3.08181e+6 
        8216.85       3.0734e+6 
        8232.84      3.06501e+6 
        8264.83      3.04824e+6 
        8289.72      3.03521e+6 
        8328.82      3.01474e+6 
        8343.44       3.0071e+6 
        8367.92      2.99431e+6 
        8388.68      2.98353e+6 
        8408.65      2.97318e+6 
        8432.02      2.96106e+6 
        8467.25      2.94283e+6 
        8502.48      2.92464e+6 
        8516.58      2.91736e+6 
        8530.98      2.90994e+6 
        8545.38      2.90258e+6 
        8574.18      2.88788e+6 
        8598.39      2.87555e+6 
         8628.6      2.86018e+6 
        8646.81      2.85093e+6 
        8665.01      2.84169e+6 
        8685.59      2.83133e+6 
        8701.43      2.82331e+6 
        8750.47      2.79856e+6 
        8767.92      2.78977e+6 
        8815.35      2.76595e+6 
        8862.78      2.74246e+6 
        8900.38      2.72391e+6 
        8957.65      2.69577e+6 
        9014.91      2.66777e+6 
        9044.62      2.65331e+6 
        9072.17      2.63994e+6 
        9099.72      2.62661e+6 
        9154.81      2.60033e+6 
         9190.8      2.58324e+6 
         9209.9       2.5742e+6 
        9229.01      2.56517e+6 
        9267.22      2.54718e+6 
         9303.2       2.5303e+6 
        9343.64      2.51142e+6 
        9384.08      2.49263e+6 
        9464.96       2.4557e+6 
        9545.72      2.41917e+6 
        9561.21      2.41222e+6 
        9576.69      2.40527e+6 
        9607.66      2.39142e+6 
        9668.45       2.3644e+6 
        9729.24      2.33787e+6 
        9790.04      2.31154e+6 
        9850.83      2.28544e+6 
        9870.42      2.27708e+6 
        9911.62      2.25956e+6 
        9952.82      2.24215e+6 
        10021.1      2.21382e+6 
        10035.2      2.20798e+6 
        10049.4      2.20215e+6 
        10077.7      2.19054e+6 
        10134.2      2.16746e+6 
        10144.5       2.1633e+6 
        10190.8      2.14457e+6 
        10237.2      2.12597e+6 
        10329.9      2.09006e+6 
        10422.6      2.05463e+6 
        10515.3       2.0197e+6 
          10608      1.98526e+6 
        10700.7      1.95133e+6 
        10793.4       1.9179e+6 
        10834.1      1.90337e+6 
        10886.1      1.88496e+6 
        10938.1       1.8667e+6 
        10990.1      1.84865e+6 
          11042      1.83074e+6 
          11094      1.81299e+6 
          11146       1.7954e+6 
          11198      1.77796e+6 
          11239      1.76431e+6 
          11250      1.76068e+6 
        11260.9      1.75706e+6 
        11282.8      1.75014e+6 
        11326.6      1.73638e+6 
        11414.2      1.70914e+6 
        11501.8      1.68229e+6 
        11589.4      1.65581e+6 
          11677      1.62973e+6 
        11764.6      1.60404e+6 
        11852.2      1.57873e+6 
        11939.8      1.55381e+6 
        12027.4      1.52926e+6 
          12115       1.5051e+6 
        12202.6      1.48131e+6 
        12284.6      1.45938e+6 
        12366.6      1.43885e+6 
        12448.7      1.41859e+6 
        12530.7       1.3986e+6 
        12612.7      1.37887e+6 
        12694.7      1.35939e+6 
        12735.4      1.34981e+6 
        12776.7      1.34012e+6 
        12818.1      1.33049e+6 
        12900.8      1.31167e+6 
        12983.5      1.29306e+6 
        13066.2      1.27469e+6 
        13148.9      1.25656e+6 
        13231.6      1.23869e+6 
        13308.4      1.22233e+6 
        13385.1      1.20724e+6 
        13461.9      1.19232e+6 
        13538.7      1.17757e+6 
        13615.5        1.163e+6 
        13692.3       1.1486e+6 
        13769.1      1.13437e+6 
        13845.9      1.12031e+6 
        13922.7      1.10642e+6 
        13999.5       1.0927e+6 
        14076.2      1.07915e+6 
          14153      1.06576e+6 
        14229.8      1.05254e+6 
        14281.2      1.04379e+6 
        14306.6      1.03948e+6 
        14332.1      1.03519e+6 
          14383      1.02703e+6 
        14410.1       1.0227e+6 
        14427.1      1.02001e+6 
        14457.6      1.01517e+6 
        14505.2      1.00778e+6 
        14581.2          996036 
        14597.2          993667 
        14613.2          991330 
        14645.2          986667 
        14709.2          977397 
        14773.2          968198 
        14837.1          959069 
        14901.1          950014 
        14965.1          941036 
        15029.1          932129 
        15093.1          923298 
        15157.1          914536 
          15221          905850 
          15285          897242 
          15349          888706 
          15413          880246 
        15471.6          872562 
        15482.4          871151 
