# Koester WD models
# teff = 5000 K (value for the effective temperature for the model. Temperatures are given in K)
# logg = 7 log(cm/s2) (value for Log(G) for the model.)
#
# column 1: WAVELENGTH (ANGSTROM), Wavelength in Angstrom
# column 2: FLUX (ERG/CM2/S/A), Flux in erg/cm2/s/A
         899.23     0.000146222 
        909.241     0.000210786 
        919.251     0.000301272 
        929.261     0.000426176 
        939.271     0.000590987 
         949.28     0.000837979 
        959.289      0.00115337 
        969.297       0.0016103 
        979.305      0.00221957 
        989.312      0.00302533 
        999.319      0.00408652 
        1009.33      0.00547803 
        1019.33      0.00729236 
        1029.34       0.0096352 
        1039.34       0.0126799 
        1049.35       0.0165561 
        1059.36       0.0215062 
        1069.36       0.0277686 
        1079.36       0.0356957 
        1089.37       0.0456153 
        1099.37       0.0580485 
        1109.38       0.0734674 
        1119.38       0.0926905 
        1129.38        0.116338 
        1139.39        0.145282 
        1149.39         0.18037 
        1159.39        0.221912 
        1169.39        0.270054 
         1179.4        0.328994 
         1189.4        0.404958 
         1199.4        0.495759 
         1209.4        0.607892 
        1219.41        0.737665 
        1229.41        0.878515 
        1239.41         1.05561 
        1249.41         1.26622 
        1259.41         1.51451 
        1269.41         1.80801 
        1279.42         2.15756 
        1289.42         2.56547 
        1299.42         3.03579 
        1309.42         3.58336 
        1319.42         4.21382 
        1329.42         4.94458 
        1339.42         5.78176 
        1349.42         6.74381 
        1359.42         7.85153 
        1369.42         9.10503 
        1379.42         10.5393 
        1389.42         12.1763 
        1399.42         14.0226 
        1409.42         16.1061 
        1419.42         18.4834 
        1429.42         21.1619 
        1439.42         24.1398 
        1454.42         29.3114 
        1464.42         33.3295 
        1474.42         37.8241 
        1489.42         45.4061 
        1504.42         54.2795 
        1514.42         61.0971 
        1529.42         72.8793 
        1544.42         86.4061 
        1559.42         101.707 
        1570.19         113.975 
        1584.41         132.405 
        1599.41         154.685 
        1614.41         180.548 
        1629.41          211.02 
        1644.41         247.088 
        1659.41         288.246 
        1670.17         321.259 
         1684.4         370.036 
         1699.4         429.091 
         1714.4         495.432 
         1729.4         569.536 
         1744.4         651.249 
        1759.39         740.071 
         1771.7         820.006 
        1784.39         911.696 
        1799.39         1031.26 
        1814.38          1162.6 
        1829.38         1307.42 
        1840.15         1420.12 
        1850.92         1540.95 
           1864         1700.67 
        1876.29         1862.18 
        1888.59         2037.44 
        1900.88         2226.46 
        1913.17         2430.25 
        1925.56         2649.95 
        1937.95         2890.64 
        1950.34         3148.63 
        1962.56         3415.89 
        1974.62         3697.78 
        1986.68         3998.65 
        1998.74         4319.91 
        2015.84         4812.64 
        2031.63         5315.89 
        2047.42         5849.61 
        2059.38         6282.56 
        2074.69         6877.73 
        2089.99         7522.32 
         2105.3         8217.37 
        2116.25         8747.92 
         2127.2         9309.01 
        2138.15         9912.23 
         2149.1         10533.2 
        2165.42         11520.4 
        2178.22         12343.6 
        2191.02         13215.8 
        2203.82         14139.7 
         2214.7           14969 
        2225.57         15829.1 
        2236.45         16731.2 
        2247.33         17678.6 
        2259.77         18817.7 
         2272.2         20124.2 
        2288.79         21997.8 
        2305.37         24035.7 
         2320.9         26016.2 
        2336.42         28056.5 
        2351.94         30242.8 
        2362.35         31800.1 
        2378.25         34286.7 
        2388.85         36036.6 
        2399.45         37877.2 
         2419.1         41555.4 
        2440.98         46101.6 
        2451.59         48402.2 
        2465.39         51721.9 
        2475.96         54401.1 
        2492.99         59007.6 
        2510.01         63997.1 
        2527.04         69127.3 
        2543.14         74296.5 
        2555.21         78393.1 
        2567.28           83102 
        2579.35         88327.1 
        2591.43         93927.7 
        2607.52          102104 
        2623.62          110590 
        2637.85          118575 
        2652.72          127472 
        2667.58          135902 
         2687.4          147141 
        2707.21          159102 
        2727.03          171772 
        2737.59          178813 
        2756.11          191715 
        2774.63          205915 
        2793.15          220881 
        2811.67          236724 
        2830.19          253361 
        2842.89          265207 
        2854.55          276348 
        2866.21          288589 
        2877.87          301213 
        2889.53          314235 
        2901.19          327634 
        2924.51          355613 
        2942.69          378556 
        2952.98          392011 
        2963.28          405165 
        2983.87          432487 
        3004.46          461000 
        3025.05          490739 
        3039.86          512940 
        3051.42          530694 
        3062.98          550859 
        3074.53          571509 
        3097.65          614282 
        3120.76          659062 
         3137.9          693554 
        3149.86          718278 
        3161.82          745802 
        3173.78          773991 
        3197.69          832506 
        3221.61          893642 
        3242.76          949861 
        3253.82          976338 
        3270.42      1.01107e+6 
        3292.54      1.05826e+6 
        3326.84      1.13334e+6 
        3346.73      1.17792e+6 
        3366.62      1.22387e+6 
        3406.41      1.31795e+6 
        3445.17      1.41218e+6 
        3501.75      1.55157e+6 
        3522.68      1.60409e+6 
         3543.6      1.65714e+6 
        3579.62      1.74886e+6 
        3591.28      1.77882e+6 
        3602.94      1.80872e+6 
        3613.57      1.83606e+6 
        3626.27      1.86886e+6 
        3638.96      1.90177e+6 
        3651.32      1.93427e+6 
         3663.4        1.966e+6 
        3673.95      1.99366e+6 
         3684.5      2.02125e+6 
         3695.3      2.04946e+6 
        3705.37      2.07579e+6 
        3715.64      2.10254e+6 
        3725.75      2.12689e+6 
        3735.82       2.1494e+6 
        3746.45      2.17311e+6 
        3757.47      2.19764e+6 
        3768.55      2.22216e+6 
        3778.93      2.24514e+6 
        3790.45      2.27049e+6 
        3800.56      2.29259e+6 
        3811.59      2.31686e+6 
        3822.57      2.34122e+6 
        3832.73      2.36344e+6 
        3842.75      2.38656e+6 
        3853.31      2.41033e+6 
        3863.68       2.4334e+6 
        3873.85      2.45574e+6 
         3884.4      2.47746e+6 
        3894.46      2.49978e+6 
        3908.89      2.53236e+6 
        3923.89      2.56613e+6 
        3935.81      2.59332e+6 
        3946.58      2.61755e+6 
        3957.31      2.64094e+6 
        3967.38      2.65394e+6 
        3977.86        2.685e+6 
        3988.87      2.71102e+6 
        4003.87      2.74372e+6 
        4018.86      2.77618e+6 
        4032.38      2.80543e+6 
        4043.86      2.82992e+6 
        4058.85      2.86141e+6 
        4073.85      2.89218e+6 
           4084      2.91211e+6 
        4096.52      2.92607e+6 
        4106.79      2.94581e+6 
        4117.77      2.98003e+6 
        4128.84      3.00376e+6 
        4143.83      3.03421e+6 
        4158.83      3.06382e+6 
        4173.82      3.09277e+6 
        4188.82       3.1211e+6 
        4203.81      3.14882e+6 
        4216.52      3.17219e+6 
        4228.81      3.19443e+6 
        4243.81      3.22101e+6 
         4258.8      3.24696e+6 
         4273.8      3.27228e+6 
        4288.79      3.29691e+6 
        4303.79      3.32063e+6 
        4314.07      3.33555e+6 
        4326.14      3.34931e+6 
        4336.17      3.32047e+6 
        4346.17      3.35227e+6 
        4357.43      3.39704e+6 
        4367.98      3.41497e+6 
        4378.77      3.43096e+6 
        4393.77      3.45201e+6 
        4408.76      3.47061e+6 
        4423.76      3.48754e+6 
        4438.75      3.50413e+6 
        4453.75      3.52041e+6 
        4468.74       3.5364e+6 
        4483.74       3.5521e+6 
        4498.74      3.56844e+6 
        4513.73      3.58795e+6 
        4527.19      3.60491e+6 
        4538.73      3.61908e+6 
        4553.72      3.63696e+6 
        4568.72      3.65424e+6 
        4583.72      3.67098e+6 
        4596.53      3.68462e+6 
        4608.71       3.6964e+6 
         4623.7       3.7105e+6 
         4638.7      3.72426e+6 
         4653.7      3.73765e+6 
        4668.69      3.75072e+6 
        4683.69      3.76341e+6 
        4698.68      3.77557e+6 
        4713.68      3.78722e+6 
        4724.83       3.7957e+6 
        4738.67      3.80598e+6 
        4753.67      3.81678e+6 
        4768.67      3.82728e+6 
        4783.66      3.83736e+6 
        4798.66      3.84694e+6 
        4813.65      3.85568e+6 
        4828.65      3.86259e+6 
        4839.16      3.86356e+6 
        4850.22      3.84308e+6 
        4860.36       3.4227e+6 
        4870.86      3.84399e+6 
        4882.91      3.88882e+6 
        4893.63      3.90066e+6 
        4908.63      3.91135e+6 
         4921.7      3.91907e+6 
        4933.62      3.92561e+6 
        4948.62      3.93337e+6 
        4963.61      3.94078e+6 
        4978.61      3.94791e+6 
        4993.61       3.9547e+6 
         5008.6       3.9612e+6 
         5023.6      3.96749e+6 
        5038.59      3.97352e+6 
        5053.59      3.97936e+6 
        5068.59      3.98502e+6 
        5083.58      3.99039e+6 
        5098.58      3.99538e+6 
        5113.57      4.00019e+6 
        5128.57      4.00484e+6 
        5143.57       4.0093e+6 
        5158.56      4.01357e+6 
        5173.56      4.01766e+6 
        5188.55      4.02136e+6 
        5203.55      4.02488e+6 
        5218.55      4.02821e+6 
        5233.54      4.03135e+6 
        5248.54      4.03437e+6 
        5263.53      4.03723e+6 
        5278.53      4.04015e+6 
        5293.52      4.04354e+6 
        5308.52      4.04675e+6 
        5323.52       4.0497e+6 
        5338.51      4.05247e+6 
        5353.51      4.05504e+6 
        5368.51       4.0574e+6 
         5383.5      4.05894e+6 
         5398.5      4.06016e+6 
        5413.49      4.06123e+6 
        5428.49      4.06217e+6 
        5443.48      4.06296e+6 
        5458.48      4.06362e+6 
        5473.48      4.06431e+6 
        5488.47      4.06522e+6 
        5503.47      4.06597e+6 
        5518.47      4.06657e+6 
        5533.46      4.06704e+6 
        5548.46      4.06736e+6 
        5563.45      4.06755e+6 
        5578.45      4.06755e+6 
        5593.44      4.06742e+6 
        5608.44      4.06717e+6 
        5623.44      4.06679e+6 
        5638.43      4.06626e+6 
        5653.43       4.0656e+6 
        5668.43      4.06484e+6 
        5682.86      4.06393e+6 
        5693.42      4.06321e+6 
        5704.77      4.06236e+6 
        5715.23      4.06155e+6 
        5728.41      4.06038e+6 
         5743.4      4.05897e+6 
         5758.4      4.05743e+6 
         5773.4       4.0557e+6 
        5788.39      4.05391e+6 
        5803.39      4.05203e+6 
        5818.39      4.05002e+6 
        5833.38      4.04791e+6 
        5848.38      4.04568e+6 
        5863.37      4.04336e+6 
        5878.37      4.04094e+6 
        5893.36      4.03839e+6 
        5908.36      4.03575e+6 
        5923.36      4.03302e+6 
        5938.35      4.03019e+6 
        5953.35      4.02724e+6 
        5968.34      4.02419e+6 
        5983.34      4.02102e+6 
        5998.34      4.01778e+6 
        6013.33      4.01442e+6 
        6028.33      4.01097e+6 
        6043.32      4.00745e+6 
        6058.32       4.0038e+6 
        6073.32       4.0001e+6 
        6088.31      3.99629e+6 
        6103.31       3.9924e+6 
         6118.3      3.98844e+6 
         6133.3      3.98436e+6 
         6148.3      3.98021e+6 
        6163.29        3.976e+6 
        6178.29      3.97166e+6 
        6193.28       3.9673e+6 
        6208.28       3.9628e+6 
        6223.28      3.95828e+6 
        6238.27      3.95363e+6 
        6252.16       3.9493e+6 
        6262.16      3.94612e+6 
        6273.26      3.94254e+6 
        6284.63      3.93883e+6 
        6295.99       3.9351e+6 
        6306.09      3.93173e+6 
        6316.22      3.92834e+6 
        6328.25      3.92423e+6 
        6343.24      3.91904e+6 
        6358.24      3.91376e+6 
        6373.23      3.90839e+6 
        6388.23      3.90293e+6 
        6403.23       3.8973e+6 
        6418.22      3.89155e+6 
        6433.22      3.88562e+6 
        6448.22      3.87943e+6 
        6463.21      3.87283e+6 
        6478.21      3.86564e+6 
         6493.2      3.85725e+6 
         6508.2      3.84641e+6 
        6523.19      3.82922e+6 
         6536.1      3.79787e+6 
        6546.46      3.72904e+6 
        6556.48      3.46116e+6 
        6566.54      3.26465e+6 
        6577.23      3.69451e+6 
        6587.48      3.77101e+6 
        6598.17      3.79451e+6 
        6613.66      3.80327e+6 
         6634.3      3.80218e+6 
        6654.94      3.79668e+6 
        6680.98       3.7876e+6 
        6696.23      3.78175e+6 
        6711.48      3.77566e+6 
        6741.98      3.76316e+6 
        6781.19      3.74644e+6 
        6802.98      3.73696e+6 
        6824.78      3.72734e+6 
        6868.37      3.70799e+6 
        6955.56      3.66815e+6 
        6976.35      3.65848e+6 
        7042.75      3.62706e+6 
        7109.15      3.59502e+6 
        7175.54      3.56285e+6 
        7241.94      3.53018e+6 
        7308.33      3.49703e+6 
        7355.95        3.473e+6 
        7374.73      3.46354e+6 
        7393.51      3.45396e+6 
        7431.08      3.43502e+6 
        7506.22      3.39678e+6 
        7581.35      3.35817e+6 
         7635.1      3.33037e+6 
        7656.49      3.31928e+6 
        7677.88      3.30816e+6 
        7720.67      3.28614e+6 
        7806.23      3.24187e+6 
        7821.36      3.23402e+6 
         7891.8      3.19742e+6 
        7962.25      3.16069e+6 
        7982.84      3.15004e+6 
        8032.69      3.12423e+6 
        8082.55      3.09839e+6 
        8161.68      3.05757e+6 
        8182.26      3.04695e+6 
        8200.85      3.03736e+6 
        8216.85      3.02916e+6 
        8232.84      3.02096e+6 
        8264.83      3.00456e+6 
        8289.72      2.99182e+6 
        8328.82      2.97181e+6 
        8343.44      2.96433e+6 
        8367.92      2.95183e+6 
        8388.68      2.94129e+6 
        8408.65      2.93117e+6 
        8432.02      2.91932e+6 
        8467.25      2.90149e+6 
        8502.48       2.8837e+6 
        8516.58      2.87658e+6 
        8530.98      2.86932e+6 
        8545.38      2.86212e+6 
        8574.18      2.84775e+6 
        8598.39      2.83569e+6 
         8628.6      2.82066e+6 
        8646.81      2.81161e+6 
        8665.01      2.80257e+6 
        8685.59      2.79237e+6 
        8701.43      2.78453e+6 
        8750.47       2.7603e+6 
        8767.92      2.75171e+6 
        8815.35       2.7284e+6 
        8862.78       2.7054e+6 
        8900.38      2.68726e+6 
        8957.65      2.65972e+6 
        9014.91      2.63229e+6 
        9044.62      2.61815e+6 
        9072.17      2.60506e+6 
        9099.72      2.59201e+6 
        9154.81      2.56628e+6 
         9190.8      2.54954e+6 
         9209.9      2.54068e+6 
        9229.01      2.53177e+6 
        9267.22      2.51422e+6 
         9303.2      2.49769e+6 
        9343.64       2.4792e+6 
        9384.08      2.46079e+6 
        9464.96      2.42461e+6 
        9545.72      2.38861e+6 
        9561.21      2.38195e+6 
        9576.69      2.37518e+6 
        9607.66      2.36163e+6 
        9668.45      2.33515e+6 
        9729.24      2.30915e+6 
        9790.04      2.28335e+6 
        9850.83      2.25776e+6 
        9870.42      2.24956e+6 
        9911.62      2.23238e+6 
        9952.82      2.21531e+6 
        10021.1      2.18746e+6 
        10035.2       2.1816e+6 
        10049.4      2.17546e+6 
        10077.7      2.16463e+6 
        10134.2      2.14206e+6 
        10144.5      2.13799e+6 
        10190.8      2.11962e+6 
        10237.2      2.10137e+6 
        10329.9      2.06618e+6 
        10422.6      2.03146e+6 
        10515.3      1.99721e+6 
          10608      1.96344e+6 
        10700.7      1.93014e+6 
        10793.4      1.89733e+6 
        10834.1      1.88306e+6 
        10886.1      1.86494e+6 
        10938.1      1.84536e+6 
        10990.1      1.82928e+6 
          11042      1.81178e+6 
          11094      1.79434e+6 
          11146      1.77706e+6 
          11198      1.75992e+6 
          11239       1.7465e+6 
          11250      1.74294e+6 
        11260.9      1.73938e+6 
        11282.8       1.7326e+6 
        11326.6       1.7191e+6 
        11414.2      1.69238e+6 
        11501.8      1.66603e+6 
        11589.4      1.64006e+6 
          11677      1.61446e+6 
        11764.6      1.58923e+6 
        11852.2      1.56437e+6 
        11939.8      1.53988e+6 
        12027.4      1.51576e+6 
          12115        1.492e+6 
        12202.6      1.46861e+6 
        12284.6      1.44704e+6 
        12366.6      1.42691e+6 
        12448.7      1.40705e+6 
        12530.7      1.38744e+6 
        12612.7      1.36808e+6 
        12694.7      1.34895e+6 
        12735.4       1.3395e+6 
        12776.7      1.32965e+6 
        12797.4      1.32392e+6 
        12807.7      1.31996e+6 
        12818.1      1.31482e+6 
        12828.4      1.31527e+6 
        12838.7      1.31455e+6 
        12849.1      1.31291e+6 
        12859.4      1.31091e+6 
        12880.1      1.30655e+6 
        12921.4      1.29748e+6 
        13004.1      1.27927e+6 
        13086.8      1.26126e+6 
        13169.5       1.2435e+6 
        13196.1      1.23784e+6 
        13252.2      1.22598e+6 
        13308.4      1.21424e+6 
        13364.5      1.20342e+6 
        13420.6      1.19269e+6 
        13476.7      1.18205e+6 
        13532.8       1.1715e+6 
        13588.9      1.16103e+6 
          13645      1.15066e+6 
        13701.2      1.14037e+6 
        13757.3      1.13016e+6 
        13813.4      1.12005e+6 
        13869.5      1.11002e+6 
        13925.6      1.10008e+6 
        13981.7      1.09022e+6 
        14037.8      1.08045e+6 
          14094      1.07077e+6 
        14150.1      1.06118e+6 
        14206.2      1.05166e+6 
        14262.3      1.04224e+6 
        14304.8      1.03516e+6 
        14318.4      1.03289e+6 
        14332.1      1.03063e+6 
        14359.4      1.02634e+6 
        14370.3      1.02462e+6 
          14414       1.0178e+6 
        14457.6      1.01101e+6 
        14506.8      1.00353e+6 
          14545          997729 
        14581.2          992266 
        14597.2          989950 
        14613.2          987663 
        14645.2          983108 
        14709.2          974041 
        14773.2          965047 
