# Koester WD models
# teff = 5250 K (value for the effective temperature for the model. Temperatures are given in K)
# logg = 7 log(cm/s2) (value for Log(G) for the model.)
#
# column 1: WAVELENGTH (ANGSTROM), Wavelength in Angstrom
# column 2: FLUX (ERG/CM2/S/A), Flux in erg/cm2/s/A
         899.23      0.00069444 
        909.241     0.000984072 
        919.251      0.00138323 
        929.261        0.001933 
        939.271      0.00268939 
         949.28      0.00366643 
        959.289      0.00524165 
        969.297      0.00730024 
        979.305       0.0100124 
        989.312       0.0135214 
        999.319       0.0180602 
        1009.33       0.0239124 
        1019.33       0.0313926 
        1029.34       0.0408043 
        1039.34       0.0532308 
        1049.35       0.0685228 
        1059.36       0.0877927 
        1069.36        0.111757 
        1079.36        0.141764 
        1089.37        0.178649 
        1099.37        0.224397 
        1109.38        0.280168 
        1119.38        0.349336 
        1129.38        0.433109 
        1139.39        0.533955 
        1149.39        0.653747 
        1159.39        0.790063 
        1169.39        0.939277 
         1179.4         1.11072 
         1189.4         1.34149 
         1199.4         1.61991 
         1209.4         1.94635 
        1219.41          2.3349 
        1229.41         2.80897 
        1239.41         3.35915 
        1249.41         4.00082 
        1259.41         4.74905 
        1269.41         5.65031 
        1279.42         6.72056 
        1289.42         7.94641 
        1299.42         9.33499 
        1309.42         10.9446 
        1319.42         12.7688 
        1329.42         14.8758 
        1339.42         17.2563 
        1349.42         19.9714 
        1359.42         23.0886 
        1369.42          26.559 
        1379.42         30.5074 
        1389.42         34.9942 
        1399.42         39.9991 
        1409.42         45.5836 
        1419.42         51.9462 
        1429.42         59.0588 
        1439.42         66.8506 
        1454.42         80.2969 
        1464.42         90.7295 
        1474.42         102.296 
        1489.42         121.369 
        1504.42         143.454 
        1514.42          160.52 
        1529.42         190.025 
        1544.42         223.192 
        1559.42         259.461 
        1570.19         288.029 
        1584.41         331.036 
        1599.41         382.778 
        1614.41         443.643 
        1629.41         517.276 
        1644.41         606.026 
        1659.41         708.332 
        1670.17         790.692 
         1684.4          912.35 
         1699.4         1060.87 
         1714.4          1225.2 
         1729.4         1406.39 
         1744.4         1602.44 
        1759.39         1810.02 
         1771.7         1994.99 
        1784.39         2208.72 
        1799.39         2486.35 
        1819.38         2895.62 
        1834.77          3245.3 
        1845.54         3508.84 
         1856.3         3795.83 
        1867.07         4098.62 
        1882.44         4567.66 
        1894.73         4976.75 
        1906.98         5416.01 
        1919.37         5893.63 
        1931.76          6399.9 
        1944.14         6963.56 
        1956.53         7565.43 
        1968.59         8171.94 
        1980.65         8818.04 
        1992.71          9507.9 
        2004.77         10245.3 
        2015.84         10967.1 
         2027.8         11825.6 
        2047.42         13284.5 
        2067.03         14890.9 
        2086.65         16693.7 
        2106.26         18687.4 
        2121.25         20354.2 
        2136.23         22218.7 
        2155.85         24805.7 
        2166.22         26263.2 
        2178.22           28032 
        2191.02         30049.2 
        2203.82           32191 
         2214.7         34115.5 
        2225.57         36094.7 
        2236.45         38172.2 
        2247.33         40354.7 
        2259.77         42992.4 
         2272.2         46275.3 
        2288.79         50977.4 
        2305.37         56129.6 
         2320.9         61112.8 
        2336.42         66089.1 
        2351.94         71424.7 
        2362.35         75210.7 
        2378.25         81187.9 
        2388.85         85399.2 
        2399.45         89827.9 
         2419.1         98715.1 
        2438.76          108564 
        2451.59          115153 
        2465.39          123252 
        2475.96          129723 
        2492.99          140837 
        2510.01          152873 
        2527.04          164821 
        2543.14          176834 
        2555.21          186328 
        2567.28          197492 
        2579.35          209903 
        2591.43          223072 
        2605.66          240194 
        2618.66          256334 
        2631.66          272930 
        2644.67          290452 
        2657.67          308949 
        2670.67          324580 
        2683.68          340838 
        2703.18          366432 
        2716.18          384276 
        2729.18          402740 
        2742.19          421828 
        2754.27          440147 
           2769          464136 
        2783.72          489187 
        2798.45          515193 
        2813.18          542198 
        2827.91          570168 
        2842.64          599102 
        2854.55          622871 
        2866.45          648613 
        2878.36          675091 
        2902.18          730530 
           2926          788870 
        2946.65          841821 
        2959.32          874390 
        2971.99          906642 
        2997.34          973256 
        3022.68      1.04264e+6 
        3044.64      1.10495e+6 
         3058.2      1.14646e+6 
        3071.77      1.19099e+6 
        3085.33      1.23659e+6 
         3098.9      1.28311e+6 
        3126.03      1.37879e+6 
        3137.94      1.42145e+6 
        3149.86       1.4646e+6 
        3161.77      1.51112e+6 
        3173.69      1.55837e+6 
         3185.6      1.60634e+6 
        3197.52      1.65496e+6 
        3221.35      1.75419e+6 
        3234.82      1.81143e+6 
        3248.29      1.86943e+6 
        3261.77      1.91282e+6 
        3275.24      1.95649e+6 
        3288.71      2.00043e+6 
        3302.18      2.04461e+6 
        3315.65      2.08903e+6 
        3338.47      2.16477e+6 
        3354.99      2.21993e+6 
        3371.52      2.27523e+6 
        3404.57      2.38655e+6 
        3445.17      2.52441e+6 
        3509.11      2.73493e+6 
        3526.36      2.79155e+6 
         3543.6       2.8482e+6 
         3564.9      2.91666e+6 
        3578.09      2.95905e+6 
        3591.28       3.0014e+6 
        3617.67      3.08486e+6 
        3635.88      3.14232e+6 
        3647.12      3.17782e+6 
        3658.96      3.21501e+6 
        3671.11      3.25287e+6 
        3682.58      3.28827e+6 
         3693.5       3.3217e+6 
        3703.57      3.35224e+6 
        3713.83      3.38312e+6 
        3724.38      3.41318e+6 
        3734.43      3.43885e+6 
        3744.62      3.46602e+6 
        3754.84      3.49245e+6 
        3765.07      3.51871e+6 
         3775.5      3.54535e+6 
        3786.22      3.57259e+6 
        3796.45      3.59637e+6 
        3807.84      3.62694e+6 
        3818.92      3.65465e+6 
        3830.45      3.68217e+6 
        3840.76      3.70846e+6 
        3851.98      3.73812e+6 
        3862.01      3.76303e+6 
        3872.59       3.7886e+6 
         3884.4      3.81069e+6 
        3894.46      3.83648e+6 
        3908.89        3.876e+6 
        3923.89       3.9126e+6 
        3935.81      3.94157e+6 
        3946.58      3.96701e+6 
        3957.31      3.99045e+6 
        3967.38      3.97581e+6 
        3977.86      4.03371e+6 
        3988.87      4.06478e+6 
        4003.87      4.09928e+6 
        4018.86      4.13277e+6 
        4032.38      4.16264e+6 
        4043.86      4.18749e+6 
        4058.85      4.21922e+6 
        4073.85      4.24973e+6 
           4084      4.26861e+6 
        4095.68      4.26983e+6 
        4105.79      4.26484e+6 
        4116.23      4.33166e+6 
        4128.84      4.36044e+6 
        4143.83      4.39066e+6 
        4158.83      4.41959e+6 
        4173.82      4.44771e+6 
        4188.82      4.47504e+6 
        4203.81      4.50168e+6 
        4216.52      4.52402e+6 
        4228.81      4.54516e+6 
        4243.81      4.57033e+6 
         4258.8       4.5948e+6 
         4273.8      4.61852e+6 
        4288.79      4.64142e+6 
        4303.79       4.6631e+6 
        4314.07       4.6762e+6 
        4326.14      4.68481e+6 
        4336.17      4.60328e+6 
        4347.33      4.67767e+6 
        4357.43      4.73089e+6 
        4367.98      4.75009e+6 
        4378.77      4.76561e+6 
        4393.77      4.78531e+6 
        4408.76      4.80271e+6 
        4423.76      4.81857e+6 
        4438.75        4.834e+6 
        4453.75      4.84905e+6 
        4468.74      4.86372e+6 
        4483.74      4.87805e+6 
        4498.74      4.89394e+6 
        4513.73      4.91084e+6 
        4527.19      4.92548e+6 
        4538.73      4.93761e+6 
        4553.72      4.95288e+6 
        4568.72      4.96758e+6 
        4583.72      4.98172e+6 
        4596.53      4.99322e+6 
        4608.71      5.00314e+6 
         4623.7      5.01502e+6 
         4638.7      5.02649e+6 
         4653.7      5.03754e+6 
        4668.69      5.04826e+6 
        4683.69      5.05856e+6 
        4698.68      5.06833e+6 
        4713.68      5.07763e+6 
        4724.83      5.08429e+6 
        4738.67       5.0923e+6 
        4753.67      5.10063e+6 
        4768.67      5.10858e+6 
        4783.66      5.11602e+6 
        4798.66      5.12281e+6 
        4813.65      5.12852e+6 
        4828.65      5.13148e+6 
        4839.16      5.12764e+6 
        4850.22       5.0891e+6 
        4860.28      4.13327e+6 
        4870.86      5.07933e+6 
        4881.01      5.14097e+6 
        4893.63      5.15806e+6 
        4908.63      5.16739e+6 
         4921.7       5.1732e+6 
        4933.62      5.17772e+6 
        4948.62      5.18287e+6 
        4963.61      5.18752e+6 
        4978.61      5.19186e+6 
        4993.61      5.19582e+6 
         5008.6      5.19946e+6 
         5023.6      5.20279e+6 
        5038.59       5.2059e+6 
        5053.59      5.20876e+6 
        5068.59      5.21137e+6 
        5083.58      5.21372e+6 
        5098.58       5.2157e+6 
        5113.57      5.21749e+6 
        5128.57      5.21903e+6 
        5143.57      5.22038e+6 
        5158.56      5.22155e+6 
        5173.56      5.22249e+6 
        5188.55      5.22309e+6 
        5203.55      5.22349e+6 
        5218.55      5.22368e+6 
        5233.54      5.22368e+6 
        5248.54      5.22353e+6 
        5263.53      5.22315e+6 
        5278.53      5.22277e+6 
        5293.52      5.22265e+6 
        5308.52      5.22227e+6 
        5323.52       5.2217e+6 
        5338.51      5.22092e+6 
        5353.51      5.21991e+6 
        5368.51      5.21875e+6 
         5383.5      5.21693e+6 
         5398.5      5.21482e+6 
        5413.49      5.21256e+6 
        5428.49      5.21014e+6 
        5443.48      5.20757e+6 
        5458.48       5.2048e+6 
        5473.48      5.20204e+6 
        5488.47      5.19937e+6 
        5503.47      5.19651e+6 
        5518.47      5.19352e+6 
        5533.46      5.19035e+6 
        5548.46      5.18705e+6 
        5563.45       5.1836e+6 
        5578.45      5.17995e+6 
        5593.44      5.17618e+6 
        5608.44      5.17229e+6 
        5623.44      5.16823e+6 
        5638.43      5.16406e+6 
        5653.43      5.15972e+6 
        5668.43      5.15529e+6 
        5682.86      5.15086e+6 
        5693.42      5.14753e+6 
        5704.77      5.14389e+6 
        5715.23      5.14049e+6 
        5728.41       5.1361e+6 
         5743.4      5.13097e+6 
         5758.4      5.12573e+6 
         5773.4      5.12026e+6 
        5788.39      5.11476e+6 
        5803.39      5.10917e+6 
        5818.39      5.10345e+6 
        5833.38      5.09761e+6 
        5848.38      5.09167e+6 
        5863.37      5.08561e+6 
        5878.37      5.07945e+6 
        5893.36       5.0732e+6 
        5908.36      5.06682e+6 
        5923.36      5.06038e+6 
        5938.35      5.05379e+6 
        5953.35      5.04713e+6 
        5968.34      5.04034e+6 
        5983.34      5.03346e+6 
        5998.34      5.02649e+6 
        6013.33      5.01939e+6 
        6028.33      5.01222e+6 
        6043.32      5.00497e+6 
        6058.32      4.99758e+6 
        6073.32      4.99014e+6 
        6088.31      4.98263e+6 
        6103.31      4.97499e+6 
         6118.3       4.9673e+6 
         6133.3      4.95954e+6 
         6148.3      4.95168e+6 
        6163.29      4.94374e+6 
        6178.29      4.93569e+6 
        6193.28      4.92762e+6 
        6208.28      4.91942e+6 
        6223.28      4.91119e+6 
        6238.27      4.90286e+6 
        6252.16       4.8951e+6 
        6262.16      4.88945e+6 
        6273.26      4.88317e+6 
        6284.63      4.87666e+6 
        6295.99      4.87013e+6 
        6306.09      4.86428e+6 
        6316.22      4.85838e+6 
        6328.25      4.85134e+6 
        6343.24      4.84245e+6 
        6358.24       4.8335e+6 
        6373.23      4.82442e+6 
        6388.23      4.81524e+6 
        6403.23      4.80595e+6 
        6418.22      4.79643e+6 
        6433.22      4.78672e+6 
        6448.22       4.7767e+6 
        6463.21      4.76614e+6 
        6478.21       4.7548e+6 
         6493.2      4.74192e+6 
         6508.2      4.72574e+6 
        6523.19      4.70095e+6 
         6536.1        4.657e+6 
        6546.46      4.56074e+6 
        6556.84      4.13518e+6 
        6566.99      3.92533e+6 
        6577.23      4.50998e+6 
        6587.48      4.61572e+6 
        6598.17      4.64682e+6 
        6613.66      4.65729e+6 
        6623.98      4.65681e+6 
         6634.3      4.65392e+6 
        6654.94      4.64469e+6 
        6680.98      4.63017e+6 
        6696.23        4.621e+6 
        6711.48      4.61154e+6 
        6741.98      4.59222e+6 
        6781.19      4.56671e+6 
        6802.98      4.55232e+6 
        6824.78      4.53781e+6 
        6868.37      4.50875e+6 
        6955.56      4.44972e+6 
        6976.35      4.43549e+6 
        7042.75      4.38965e+6 
        7109.15      4.34338e+6 
        7175.54      4.29729e+6 
        7241.94      4.25086e+6 
        7308.33      4.20417e+6 
        7355.95      4.17053e+6 
        7374.73       4.1573e+6 
        7393.51      4.14401e+6 
        7431.08      4.11765e+6 
        7506.22      4.06488e+6 
        7581.35      4.01197e+6 
         7635.1      3.97408e+6 
        7656.49      3.95904e+6 
        7677.88      3.94396e+6 
        7720.67      3.91414e+6 
        7806.23      3.85458e+6 
        7821.36      3.84405e+6 
         7891.8      3.79514e+6 
        7962.25      3.74635e+6 
        7982.84      3.73221e+6 
        8032.69      3.69806e+6 
        8082.55      3.66401e+6 
        8161.68      3.61041e+6 
        8182.26       3.5965e+6 
        8200.85      3.58396e+6 
        8216.85      3.57325e+6 
        8232.84      3.56253e+6 
        8264.83      3.54117e+6 
        8289.72      3.52458e+6 
        8328.82       3.4986e+6 
        8343.44      3.48893e+6 
        8367.92      3.47272e+6 
        8388.68      3.45908e+6 
        8408.65      3.44598e+6 
        8432.02      3.43071e+6 
        8467.25      3.40772e+6 
        8502.48      3.38481e+6 
        8516.58      3.37567e+6 
        8530.98      3.36634e+6 
        8545.38      3.35711e+6 
        8574.18       3.3387e+6 
        8598.39      3.32321e+6 
         8628.6      3.30401e+6 
        8646.81      3.29245e+6 
        8665.01      3.28089e+6 
        8685.59      3.26792e+6 
        8701.43      3.25793e+6 
        8750.47      3.22708e+6 
        8767.92      3.21617e+6 
        8815.35      3.18661e+6 
        8862.78      3.15746e+6 
        8900.38      3.13457e+6 
        8957.65      3.09983e+6 
        9014.91      3.06518e+6 
        9044.62      3.04756e+6 
        9072.17      3.03113e+6 
        9099.72      3.01477e+6 
        9154.81      2.98256e+6 
         9190.8      2.96164e+6 
         9209.9      2.95055e+6 
        9229.01      2.93909e+6 
        9267.22      2.91759e+6 
         9303.2      2.89703e+6 
        9343.64      2.87404e+6 
        9384.08      2.85119e+6 
        9464.96      2.80636e+6 
        9545.72      2.76091e+6 
        9561.21      2.75353e+6 
        9576.69      2.74528e+6 
        9607.66      2.72861e+6 
        9668.45      2.69603e+6 
        9729.24      2.66409e+6 
        9790.04      2.63251e+6 
        9850.83      2.60118e+6 
        9870.42      2.59115e+6 
        9911.62      2.57017e+6 
        9952.82      2.54932e+6 
        10021.1       2.5153e+6 
        10035.2      2.50792e+6 
        10049.4       2.4983e+6 
        10077.7      2.48752e+6 
          10106      2.47387e+6 
        10162.5      2.44653e+6 
        10201.1      2.42805e+6 
        10219.1      2.41943e+6 
        10237.2      2.41083e+6 
        10273.3      2.39417e+6 
        10345.5      2.36115e+6 
        10417.8      2.32852e+6 
          10490      2.29629e+6 
        10562.2      2.26445e+6 
        10634.4      2.23302e+6 
        10706.7      2.20197e+6 
        10778.9      2.17133e+6 
        10851.1      2.14105e+6 
        10908.6      2.11688e+6 
        10923.4      2.10987e+6 
        10938.1      2.09707e+6 
        10952.8      2.09781e+6 
        10967.5      2.09277e+6 
          10997      2.08112e+6 
        11055.9      2.05748e+6 
        11114.8      2.03404e+6 
        11173.7      2.01084e+6 
        11204.4      1.99887e+6 
        11232.7       1.9879e+6 
        11260.9      1.97699e+6 
        11317.4       1.9563e+6 
        11373.9      1.93581e+6 
        11430.4      1.91553e+6 
        11486.9      1.89544e+6 
        11543.3      1.87556e+6 
        11599.8      1.85587e+6 
        11656.3      1.83639e+6 
        11712.8       1.8171e+6 
        11769.3      1.79801e+6 
        11825.8      1.77912e+6 
        11882.3      1.76043e+6 
        11938.8      1.74193e+6 
        11995.3      1.72363e+6 
        12051.7      1.70552e+6 
        12108.2       1.6876e+6 
        12164.7      1.66987e+6 
        12221.2      1.65233e+6 
        12270.8       1.6371e+6 
        12284.6      1.63286e+6 
        12298.5      1.62886e+6 
        12326.3      1.62088e+6 
        12381.8      1.60504e+6 
        12437.3      1.58934e+6 
        12492.8       1.5738e+6 
        12548.3      1.55839e+6 
        12603.8      1.54313e+6 
        12659.3      1.52801e+6 
        12714.8      1.51297e+6 
        12746.5      1.50434e+6 
        12770.3       1.4976e+6 
        12782.3      1.49392e+6 
        12794.2      1.48947e+6 
        12806.1      1.48175e+6 
          12818      1.46066e+6 
        12830.8      1.47582e+6 
        12843.6      1.47673e+6 
        12856.4      1.47456e+6 
          12882      1.46856e+6 
        12933.2      1.45559e+6 
        12984.4      1.44252e+6 
        13035.6      1.42953e+6 
        13086.7      1.41665e+6 
        13137.9      1.40389e+6 
        13189.1      1.39124e+6 
        13240.3       1.3787e+6 
        13274.6      1.37036e+6 
        13291.5      1.36628e+6 
        13308.4      1.36222e+6 
        13342.1      1.35467e+6 
        13409.5      1.33968e+6 
          13477      1.32486e+6 
        13544.4      1.31018e+6 
        13611.9      1.29567e+6 
        13679.3      1.28131e+6 
        13746.8      1.26711e+6 
        13814.3      1.25306e+6 
        13881.7      1.23916e+6 
        13949.2      1.22543e+6 
        14016.6      1.21184e+6 
