# Koester WD models
# teff = 5000 K (value for the effective temperature for the model. Temperatures are given in K)
# logg = 7.75 log(cm/s2) (value for Log(G) for the model.)
#
# column 1: WAVELENGTH (ANGSTROM), Wavelength in Angstrom
# column 2: FLUX (ERG/CM2/S/A), Flux in erg/cm2/s/A
         899.23     0.000140481 
        909.241     0.000202599 
        919.251     0.000289695 
        929.261     0.000410386 
        939.271     0.000571679 
         949.28     0.000806774 
        959.289      0.00112502 
        969.297      0.00156697 
        979.305      0.00214809 
        989.312      0.00291774 
        999.319      0.00393327 
        1009.33      0.00526628 
        1019.33      0.00700751 
        1029.34       0.0092665 
        1039.34       0.0121856 
        1049.35       0.0159299 
        1059.36       0.0207109 
        1069.36       0.0267821 
        1079.36       0.0344529 
        1089.37       0.0440894 
        1099.37       0.0561547 
        1109.38         0.07117 
        1119.38       0.0898087 
        1129.38          0.1128 
        1139.39        0.141018 
        1149.39        0.175417 
        1159.39        0.216698 
        1169.39        0.264146 
         1179.4         0.32114 
         1189.4        0.395102 
         1199.4        0.483488 
         1209.4        0.590902 
        1219.41         0.71666 
        1229.41        0.858604 
        1239.41         1.03214 
        1249.41         1.23852 
        1259.41         1.48185 
        1269.41         1.77038 
        1279.42         2.11511 
        1289.42         2.51689 
        1299.42         2.97917 
        1309.42         3.51814 
        1319.42         4.13785 
        1329.42         4.85627 
        1339.42         5.67906 
        1349.42         6.62474 
        1359.42          7.7134 
        1369.42         8.94578 
        1379.42         10.3559 
        1389.42         11.9652 
        1399.42         13.7811 
        1409.42         15.8307 
        1419.42         18.1686 
        1429.42          20.802 
        1439.42         23.7334 
        1454.42         28.8228 
        1464.42         32.7756 
        1474.42         37.1965 
        1489.42         44.6643 
        1504.42         53.3967 
        1514.42         60.1097 
        1529.42         71.7125 
        1544.42         85.0332 
        1559.42         100.099 
        1570.19         112.126 
        1584.41         130.216 
        1599.41         152.112 
        1614.41         177.596 
        1629.41         207.808 
        1644.41         242.904 
        1659.41         281.392 
        1670.17         311.563 
         1684.4         355.961 
         1699.4         409.676 
         1714.4         470.573 
         1729.4         539.019 
         1744.4         615.121 
        1759.39         698.703 
         1771.7         774.161 
        1784.39         859.951 
        1799.39          971.66 
        1814.38         1094.59 
        1829.38         1230.26 
        1840.15         1335.89 
        1850.92         1449.05 
        1861.69         1571.12 
        1876.29         1749.07 
        1888.59         1912.41 
        1900.88         2088.39 
        1913.17         2277.81 
        1925.56         2482.17 
        1937.95         2704.53 
        1950.34         2942.87 
        1962.56          3191.1 
        1974.62         3452.67 
        1992.71         3877.92 
        2004.77         4184.76 
        2015.84         4483.81 
        2031.63         4945.12 
        2047.42         5436.27 
        2059.38         5834.22 
        2074.69         6379.26 
        2089.99         6966.98 
         2105.3         7597.94 
        2116.25         8077.16 
         2127.2         8581.54 
        2138.15         9117.94 
         2149.1         9672.56 
        2165.42         10547.9 
        2178.22         11276.5 
        2191.02           12045 
        2203.82         12854.7 
         2214.7           13577 
        2225.57         14325.8 
        2236.45         15106.1 
        2247.33         15919.4 
        2263.91         17229.7 
         2280.5         18672.6 
        2297.08         20195.6 
        2313.13         21767.5 
        2329.19         23383.6 
        2345.24         25107.6 
        2360.24         26809.7 
        2377.19         28864.8 
        2394.15         31059.1 
        2409.27         33169.6 
         2424.4         35439.1 
        2439.53         37889.8 
        2453.11         40217.1 
        2463.83         42246.9 
        2482.04           45980 
        2494.18         48729.6 
        2506.32         51680.8 
        2517.39         54502.2 
        2532.15         58477.6 
        2546.91         62728.2 
        2559.23           66478 
        2571.55         70847.3 
        2590.03         78002.6 
        2602.35         83178.4 
        2614.66         88675.2 
        2626.98           94391 
         2639.3          100477 
        2651.62          106883 
        2663.72          113062 
        2681.88          122017 
        2693.98          128226 
        2706.09          134625 
        2718.19          141209 
         2730.3          147979 
         2742.4          154965 
         2752.9          161197 
        2765.74          169270 
        2778.59          177679 
        2791.43          186359 
        2804.28          195315 
        2817.12          204572 
        2829.97          214169 
        2842.26          223625 
        2854.55          233353 
        2866.84          244120 
        2879.12          255303 
        2891.41          266841 
         2903.7          278750 
        2915.99          291033 
        2928.28          303746 
        2940.57          316855 
        2952.74          330229 
        2968.21          347042 
        2983.67          364494 
        2999.14          382508 
        3014.61          401087 
        3030.07          420235 
        3045.54          439936 
        3063.19          464984 
        3074.95          482860 
        3098.48          520141 
        3122.01          559423 
        3141.23          593064 
        3158.49          626000 
        3184.38          680089 
        3201.64          717757 
         3218.9          756788 
         3233.6          791232 
        3248.29          826688 
        3262.99          854340 
        3277.69          882555 
        3299.74          925790 
        3311.54          949355 
        3329.14          985034 
        3346.73      1.02136e+6 
        3381.92      1.09775e+6 
        3417.11      1.17671e+6 
        3445.17       1.2414e+6 
        3458.96      1.27366e+6 
        3501.28      1.37471e+6 
         3543.6      1.47868e+6 
        3580.57      1.57197e+6 
        3591.28      1.59938e+6 
           3602        1.627e+6 
        3623.44      1.68269e+6 
        3635.88      1.71528e+6 
        3647.12      1.74525e+6 
        3658.96      1.77705e+6 
        3671.11      1.80975e+6 
        3682.58      1.84063e+6 
         3693.5      1.87003e+6 
        3703.57      1.89716e+6 
        3713.83      1.92478e+6 
        3724.38      1.95154e+6 
        3734.43      1.97451e+6 
        3744.62      1.99784e+6 
        3754.84      2.02118e+6 
        3765.07      2.04454e+6 
         3775.5      2.06833e+6 
        3786.22      2.09276e+6 
        3796.45      2.11601e+6 
        3807.84      2.14187e+6 
        3818.92      2.16713e+6 
        3830.45      2.19442e+6 
        3840.76      2.21873e+6 
        3851.98      2.24515e+6 
        3862.01      2.26868e+6 
        3872.59      2.29342e+6 
         3884.4      2.32084e+6 
        3894.46      2.34423e+6 
        3908.89      2.37776e+6 
        3923.89      2.41415e+6 
        3935.81      2.44378e+6 
        3946.58      2.47033e+6 
        3957.31      2.49643e+6 
        3967.38      2.52003e+6 
        3977.86      2.54611e+6 
        3988.87      2.57314e+6 
        4003.87       2.6091e+6 
        4018.86      2.64515e+6 
        4032.38      2.67783e+6 
        4043.86      2.70527e+6 
        4058.85      2.74065e+6 
        4073.85      2.77535e+6 
           4084      2.79812e+6 
        4096.52      2.82319e+6 
        4106.79      2.84622e+6 
        4117.77      2.87531e+6 
        4128.84      2.90205e+6 
        4143.83      2.93694e+6 
        4158.83      2.97099e+6 
        4173.82      3.00434e+6 
        4188.82      3.03702e+6 
        4203.81      3.06904e+6 
        4216.52      3.09616e+6 
        4228.81      3.12201e+6 
        4243.81       3.1529e+6 
         4258.8      3.18309e+6 
         4273.8      3.21256e+6 
        4288.79      3.24115e+6 
        4303.79      3.26861e+6 
        4314.07       3.2857e+6 
        4326.14      3.30222e+6 
        4336.17       3.3042e+6 
        4346.17      3.32456e+6 
        4357.43      3.35692e+6 
        4367.98      3.37753e+6 
        4378.77      3.39625e+6 
        4393.77      3.42075e+6 
        4408.76      3.44171e+6 
        4423.76      3.46028e+6 
        4438.75      3.47843e+6 
        4453.75      3.49628e+6 
        4468.74      3.51378e+6 
        4483.74      3.53096e+6 
        4498.74      3.54859e+6 
        4513.73      3.57193e+6 
        4527.19      3.59219e+6 
        4538.73      3.60906e+6 
        4553.72      3.63033e+6 
        4568.72      3.65084e+6 
        4583.72      3.67064e+6 
        4596.53      3.68666e+6 
        4608.71       3.7001e+6 
         4623.7      3.71616e+6 
         4638.7       3.7318e+6 
         4653.7      3.74701e+6 
        4668.69      3.76177e+6 
        4683.69      3.77613e+6 
        4698.68      3.78977e+6 
        4713.68      3.80271e+6 
        4724.83      3.81207e+6 
        4738.67      3.82341e+6 
        4753.67      3.83535e+6 
        4768.67      3.84682e+6 
        4783.66      3.85778e+6 
        4798.66       3.8679e+6 
        4813.65      3.87673e+6 
        4828.65      3.88254e+6 
        4839.16      3.88109e+6 
        4851.78      3.85398e+6 
        4861.84      3.78417e+6 
        4872.13      3.87365e+6 
        4882.71      3.90824e+6 
        4893.63      3.92419e+6 
        4903.92      3.93397e+6 
        4915.55      3.94276e+6 
        4928.62      3.95134e+6 
        4943.62      3.96032e+6 
        4958.61      3.96874e+6 
        4973.61      3.97672e+6 
        4988.61      3.98429e+6 
         5003.6      3.99149e+6 
         5018.6      3.99837e+6 
         5033.6      4.00503e+6 
        5048.59      4.01144e+6 
        5063.59      4.01763e+6 
        5078.58      4.02359e+6 
        5093.58      4.02897e+6 
        5108.57      4.03415e+6 
        5123.57      4.03911e+6 
        5138.57      4.04389e+6 
        5153.56      4.04844e+6 
        5168.56      4.05284e+6 
        5183.56       4.0569e+6 
        5198.55      4.06054e+6 
        5213.55        4.064e+6 
        5228.54      4.06729e+6 
        5243.54      4.07044e+6 
        5258.53      4.07342e+6 
        5273.53      4.07622e+6 
        5288.53      4.08021e+6 
        5303.52      4.08404e+6 
        5318.52      4.08759e+6 
        5333.52      4.09092e+6 
        5348.51        4.094e+6 
        5363.51      4.09689e+6 
         5378.5       4.0989e+6 
         5393.5      4.10006e+6 
        5408.49       4.1011e+6 
        5423.49      4.10195e+6 
        5438.49      4.10267e+6 
        5453.48      4.10327e+6 
        5468.48      4.10371e+6 
        5483.48      4.10487e+6 
        5498.47       4.1059e+6 
        5513.47      4.10675e+6 
        5528.46      4.10744e+6 
        5543.46      4.10798e+6 
        5558.45      4.10835e+6 
        5573.45      4.10857e+6 
        5588.45      4.10864e+6 
        5603.44      4.10854e+6 
        5618.44      4.10829e+6 
        5633.43      4.10795e+6 
        5648.43      4.10741e+6 
        5663.43      4.10678e+6 
        5673.98      4.10625e+6 
         5686.2      4.10553e+6 
        5698.42      4.10471e+6 
        5708.88      4.10396e+6 
        5723.41      4.10279e+6 
        5738.41      4.10147e+6 
         5753.4      4.10003e+6 
         5768.4      4.09824e+6 
        5783.39      4.09654e+6 
        5798.39      4.09472e+6 
        5813.39      4.09277e+6 
        5828.38      4.09073e+6 
        5843.38      4.08856e+6 
        5858.37      4.08627e+6 
        5873.37      4.08388e+6 
        5888.37       4.0814e+6 
        5903.36      4.07879e+6 
        5918.36      4.07606e+6 
        5933.35      4.07326e+6 
        5948.35      4.07031e+6 
        5963.35      4.06726e+6 
        5978.34      4.06412e+6 
        5993.34      4.06085e+6 
        6008.33      4.05749e+6 
        6023.33      4.05404e+6 
        6038.32      4.05049e+6 
        6053.32      4.04684e+6 
        6068.32       4.0431e+6 
        6083.31      4.03927e+6 
        6098.31      4.03534e+6 
        6113.31      4.03132e+6 
         6128.3      4.02724e+6 
         6143.3      4.02306e+6 
        6158.29      4.01876e+6 
        6173.29      4.01439e+6 
        6188.28      4.00993e+6 
        6203.28       4.0054e+6 
        6218.28      4.00076e+6 
        6233.27      3.99604e+6 
        6244.38      3.99252e+6 
        6256.04      3.98872e+6 
        6266.59      3.98527e+6 
        6278.26       3.9814e+6 
        6290.52      3.97726e+6 
        6302.31      3.97324e+6 
        6312.59      3.96969e+6 
        6323.25      3.96592e+6 
        6338.24      3.96054e+6 
        6353.24      3.95508e+6 
        6368.24      3.94945e+6 
        6383.23       3.9437e+6 
        6398.23      3.93774e+6 
        6413.22      3.93158e+6 
        6428.22      3.92507e+6 
        6443.22      3.91816e+6 
        6458.21      3.91062e+6 
        6473.21      3.90205e+6 
         6488.2      3.89168e+6 
         6503.2      3.87792e+6 
         6518.2      3.85662e+6 
        6532.67      3.81804e+6 
        6543.19      3.76077e+6 
        6554.43      3.62826e+6 
        6564.48      3.48908e+6 
        6575.56      3.68459e+6 
        6587.91      3.77704e+6 
        6598.17       3.8084e+6 
        6613.66      3.82709e+6 
        6623.98      3.83136e+6 
         6634.3      3.83255e+6 
        6654.94      3.83014e+6 
        6680.98      3.82297e+6 
        6696.23      3.81773e+6 
        6711.48      3.81207e+6 
        6741.98      3.80001e+6 
        6781.19      3.78355e+6 
        6802.98      3.77406e+6 
        6824.78      3.76441e+6 
        6868.37      3.74494e+6 
        6955.56      3.70469e+6 
        6976.35      3.69486e+6 
        7042.75      3.66303e+6 
        7109.15      3.63055e+6 
        7175.54      3.59791e+6 
        7241.94      3.56473e+6 
        7308.33      3.53109e+6 
        7355.95      3.50674e+6 
        7374.73      3.49716e+6 
        7393.51      3.48745e+6 
        7431.08      3.46819e+6 
        7506.22      3.42936e+6 
        7581.35      3.39019e+6 
         7635.1      3.36198e+6 
        7656.49       3.3507e+6 
        7677.88      3.33942e+6 
        7720.67      3.31705e+6 
        7806.23      3.27216e+6 
        7821.36      3.26418e+6 
         7891.8      3.22704e+6 
        7962.25      3.18978e+6 
        7982.84      3.17898e+6 
        8032.69      3.15278e+6 
        8082.55      3.12658e+6 
        8161.68      3.08517e+6 
        8182.26       3.0744e+6 
        8200.85      3.06468e+6 
        8216.85      3.05635e+6 
        8232.84      3.04804e+6 
        8264.83      3.03141e+6 
        8289.72      3.01849e+6 
        8328.82       2.9982e+6 
        8343.44      2.99062e+6 
        8367.92      2.97794e+6 
        8388.68      2.96726e+6 
        8408.65      2.95699e+6 
        8432.02      2.94499e+6 
        8467.25      2.92691e+6 
        8502.48      2.90887e+6 
        8516.58      2.90165e+6 
        8530.98      2.89429e+6 
        8545.38        2.887e+6 
        8574.18      2.87243e+6 
        8598.39      2.86019e+6 
         8628.6      2.84496e+6 
        8646.81      2.83578e+6 
        8665.01      2.82663e+6 
        8685.59      2.81629e+6 
        8701.43      2.80834e+6 
        8750.47      2.78379e+6 
        8767.92      2.77508e+6 
        8815.35      2.75145e+6 
        8862.78      2.72816e+6 
        8900.38      2.70976e+6 
        8957.65      2.68185e+6 
        9014.91      2.65408e+6 
        9044.62      2.63974e+6 
        9072.17      2.62648e+6 
        9099.72      2.61325e+6 
        9154.81      2.58718e+6 
         9190.8      2.57023e+6 
         9209.9      2.56125e+6 
        9229.01      2.55229e+6 
        9267.22      2.53445e+6 
         9303.2       2.5177e+6 
        9343.64      2.49897e+6 
        9384.08      2.48033e+6 
        9464.96      2.44368e+6 
        9545.72      2.40742e+6 
        9561.21      2.40053e+6 
        9576.69      2.39364e+6 
        9607.66       2.3799e+6 
        9668.45      2.35308e+6 
        9729.24       2.3268e+6 
        9790.04      2.30067e+6 
        9850.83      2.27476e+6 
        9870.42      2.26646e+6 
        9911.62      2.24907e+6 
        9952.82      2.23179e+6 
        10021.1      2.20365e+6 
        10035.2      2.19784e+6 
        10049.4      2.19203e+6 
        10077.7      2.18054e+6 
        10134.2      2.15765e+6 
        10144.5      2.15352e+6 
        10190.8      2.13493e+6 
        10237.2      2.11646e+6 
        10329.9      2.08082e+6 
        10422.6      2.04566e+6 
        10515.3      2.01099e+6 
          10608       1.9768e+6 
        10700.7       1.9431e+6 
        10793.4       1.9099e+6 
        10834.1      1.89547e+6 
        10886.1      1.87716e+6 
        10938.1      1.85888e+6 
        10990.1      1.84109e+6 
          11042      1.82334e+6 
          11094      1.80571e+6 
          11146      1.78824e+6 
          11198      1.77092e+6 
          11239      1.75735e+6 
          11250      1.75375e+6 
        11260.9      1.75016e+6 
        11282.8      1.74329e+6 
        11326.6      1.72962e+6 
        11414.2      1.70258e+6 
        11501.8      1.67592e+6 
        11589.4      1.64964e+6 
          11677      1.62374e+6 
        11764.6      1.59822e+6 
        11852.2      1.57309e+6 
        11939.8      1.54833e+6 
        12027.4      1.52395e+6 
          12115      1.49994e+6 
        12202.6       1.4763e+6 
        12284.6      1.45451e+6 
        12366.6      1.43414e+6 
        12448.7      1.41403e+6 
        12530.7      1.39419e+6 
        12612.7       1.3746e+6 
        12694.7      1.35523e+6 
        12735.4      1.34566e+6 
        12776.7      1.33586e+6 
        12818.1      1.32586e+6 
        12900.8      1.30779e+6 
        12983.5      1.28938e+6 
        13066.2      1.27114e+6 
        13148.9      1.25313e+6 
        13231.6      1.23538e+6 
        13308.4      1.21912e+6 
        13385.1      1.20416e+6 
        13461.9      1.18936e+6 
        13538.7      1.17474e+6 
        13615.5      1.16028e+6 
        13692.3        1.146e+6 
        13769.1      1.13188e+6 
        13845.9      1.11793e+6 
        13922.7      1.10414e+6 
        13999.5      1.09053e+6 
        14076.2      1.07707e+6 
          14153      1.06379e+6 
        14229.8      1.05066e+6 
        14281.2      1.04198e+6 
        14306.6       1.0377e+6 
        14332.1      1.03344e+6 
          14383      1.02535e+6 
        14410.1      1.02106e+6 
        14427.1      1.01839e+6 
        14457.6       1.0136e+6 
        14505.2      1.00626e+6 
        14581.2          994628 
        14597.2          992281 
        14613.2          989969 
        14645.2          985354 
        14709.2          976178 
        14773.2          967070 
        14837.1          958032 
        14901.1          949063 
        14965.1          940169 
        15029.1          931347 
        15093.1          922595 
        15157.1          913918 
          15221          905310 
          15285          896774 
