# Koester WD models
# teff = 5750 K (value for the effective temperature for the model. Temperatures are given in K)
# logg = 7.75 log(cm/s2) (value for Log(G) for the model.)
#
# column 1: WAVELENGTH (ANGSTROM), Wavelength in Angstrom
# column 2: FLUX (ERG/CM2/S/A), Flux in erg/cm2/s/A
         899.23       0.0108811 
        909.241       0.0149601 
        919.251       0.0204456 
        929.261       0.0279744 
        939.271       0.0388345 
         949.28       0.0497038 
        959.289        0.076013 
        969.297        0.105484 
        979.305        0.145256 
        989.312        0.193966 
        999.319        0.254533 
        1009.33        0.329949 
        1019.33        0.419088 
        1029.34        0.524517 
        1039.34        0.685882 
        1049.35        0.861604 
        1059.36         1.07732 
        1069.36         1.33712 
        1079.36         1.65643 
        1089.37         2.03604 
        1099.37         2.49851 
        1109.38         3.04441 
        1119.38         3.71754 
        1129.38         4.50856 
        1139.39         5.42679 
        1149.39         6.46697 
        1159.39         7.53715 
        1169.39         8.53775 
         1179.4         9.56053 
         1189.4         11.1821 
         1199.4         13.1968 
         1209.4         15.3483 
        1219.41         18.0316 
        1229.41         21.9796 
        1239.41         26.0627 
        1249.41         30.6308 
        1259.41          35.883 
        1269.41          42.442 
        1279.42         50.2777 
        1289.42         58.9363 
        1299.42          68.433 
        1309.42         79.3042 
        1319.42         91.2516 
        1329.42         105.058 
        1339.42         120.178 
        1349.42          137.19 
        1359.42         156.701 
        1369.42          177.73 
        1379.42          201.32 
        1389.42         227.993 
        1399.42         257.355 
        1409.42         289.303 
        1419.42         325.315 
        1429.42         365.028 
        1439.42           407.7 
        1454.42         480.978 
        1464.42         537.228 
        1474.42         597.873 
        1489.42         694.125 
        1504.42         804.364 
        1514.42         891.785 
        1529.42         1041.83 
        1544.42         1202.55 
        1559.42         1363.38 
        1570.19         1487.55 
        1584.41         1676.18 
        1599.41         1902.77 
        1614.41         2179.67 
        1629.41         2536.42 
        1644.41         2987.98 
        1659.41         3516.26 
        1670.17         3941.03 
         1684.4         4560.34 
         1699.4         5322.96 
         1714.4         6139.46 
         1729.4         7019.64 
         1744.4         7941.57 
        1759.39         8875.31 
         1771.7         9695.33 
        1784.39         10651.9 
        1799.39         11886.8 
        1819.38           13670 
        1834.77         15171.8 
        1845.54         16290.6 
         1856.3         17528.4 
        1867.07           18818 
        1882.44         20806.5 
        1894.73         22540.6 
        1907.03         24419.4 
        1919.18         26407.8 
        1931.21           28460 
        1943.24         30829.5 
        1953.98         33063.7 
        1968.59         36109.5 
         1983.2         39382.1 
        1997.81         42914.5 
        2012.42         46761.7 
         2023.2         49925.6 
        2039.36         54911.6 
        2050.14         58275.9 
        2060.91         61818.1 
        2073.15         66121.7 
         2091.5         73200.4 
        2103.73         78316.8 
        2115.68           83616 
        2134.04         92688.3 
        2152.41          102571 
        2165.47          109922 
        2178.54          117626 
        2191.61          125775 
        2204.67          134407 
         2214.7          141389 
        2224.72          148423 
        2234.74          155732 
        2244.76          163345 
        2259.12          174837 
         2271.1          187464 
        2287.86          205643 
        2300.89          220869 
        2313.13          236340 
        2325.38          250239 
        2337.63          264961 
        2349.87          280527 
        2361.88          296574 
        2376.91          317458 
        2391.93          339606 
        2404.63          359882 
        2423.21          392332 
         2441.8          427690 
        2456.19          455867 
        2474.59          498976 
        2492.99          544378 
        2510.01          589790 
        2527.04          634350 
        2544.07          681572 
        2555.44          714637 
        2566.81          753414 
        2578.19          796265 
        2593.35          856646 
        2608.52          923883 
        2623.68          990051 
        2638.85      1.05937e+6 
        2650.36      1.11449e+6 
        2661.32      1.16504e+6 
        2672.28      1.20905e+6 
         2686.9       1.2693e+6 
        2701.52      1.33132e+6 
        2716.13      1.39497e+6 
        2734.62      1.47771e+6 
        2745.36      1.52692e+6 
        2756.11      1.57691e+6 
         2777.6      1.68324e+6 
        2799.09      1.79299e+6 
        2820.58      1.90597e+6 
        2842.07      2.02216e+6 
        2854.55      2.09027e+6 
         2879.5      2.23637e+6 
        2904.45      2.38714e+6 
        2928.71      2.53834e+6 
        2952.93      2.69299e+6 
        2965.73      2.76925e+6 
        2978.53      2.84621e+6 
        3004.12      3.00202e+6 
        3027.77      3.14806e+6 
        3051.42      3.29581e+6 
        3075.07      3.45855e+6 
        3098.72      3.62323e+6 
        3122.37       3.7897e+6 
        3142.18      3.92947e+6 
        3157.53      4.03999e+6 
        3172.87      4.15306e+6 
        3203.56      4.38048e+6 
        3225.93       4.5472e+6 
        3237.11      4.63074e+6 
        3248.29      4.71434e+6 
        3259.48      4.77428e+6 
        3270.66      4.83403e+6 
        3281.84      4.89366e+6 
        3293.03      4.95313e+6 
        3304.21      5.01241e+6 
        3315.39      5.07154e+6 
        3326.58       5.1305e+6 
        3337.76      5.18925e+6 
        3353.49        5.271e+6 
        3367.01       5.3402e+6 
        3394.04      5.47765e+6 
        3445.17      5.73378e+6 
        3495.92      5.97094e+6 
         3543.6      6.18756e+6 
        3591.28      6.39198e+6 
        3635.88      6.57413e+6 
        3647.12      6.61912e+6 
        3658.96      6.66602e+6 
        3671.11      6.71333e+6 
        3682.58      6.75728e+6 
         3693.5      6.79847e+6 
        3703.57      6.83585e+6 
        3713.83      6.87346e+6 
        3724.38      6.90987e+6 
        3734.43      6.94022e+6 
        3744.62      6.97327e+6 
        3754.84      7.00468e+6 
        3765.07      7.03572e+6 
         3775.5      7.06704e+6 
        3786.22       7.0989e+6 
        3796.45      7.12614e+6 
        3807.84       7.1622e+6 
        3818.92      7.19422e+6 
        3830.45       7.2234e+6 
        3840.76      7.25406e+6 
        3851.98      7.29057e+6 
        3862.01      7.31913e+6 
        3872.59      7.34727e+6 
         3884.4      7.35676e+6 
        3894.46       7.3894e+6 
        3908.89      7.44743e+6 
        3923.89      7.48927e+6 
        3935.81      7.52104e+6 
        3946.58      7.54743e+6 
        3957.31      7.56543e+6 
        3967.38      7.45802e+6 
        3977.86      7.59675e+6 
        3988.87      7.65163e+6 
        4003.87      7.69188e+6 
        4018.86      7.72772e+6 
        4032.38      7.75873e+6 
        4043.86      7.78399e+6 
        4058.85      7.81521e+6 
        4073.85      7.84255e+6 
           4084      7.85294e+6 
        4094.68      7.79778e+6 
        4104.79      7.61173e+6 
        4116.69       7.9105e+6 
        4128.84      7.95059e+6 
        4143.83      7.98307e+6 
        4158.83      8.01147e+6 
        4173.82      8.03805e+6 
        4188.82      8.06327e+6 
        4203.81      8.08737e+6 
        4216.52      8.10726e+6 
        4228.81      8.12582e+6 
        4243.81      8.14744e+6 
         4258.8      8.16792e+6 
         4273.8      8.18708e+6 
        4288.79      8.20436e+6 
        4303.79      8.21794e+6 
        4314.07      8.22105e+6 
        4326.14      8.19371e+6 
        4336.17       7.8438e+6 
         4346.3      8.00154e+6 
        4357.43      8.24253e+6 
        4367.98      8.27835e+6 
        4378.77      8.29632e+6 
        4393.77      8.31372e+6 
        4408.76      8.32657e+6 
        4423.76      8.33694e+6 
        4438.75      8.34639e+6 
        4453.75      8.35516e+6 
        4468.74      8.36333e+6 
        4483.74       8.3709e+6 
        4498.74      8.37954e+6 
        4513.73      8.38978e+6 
        4527.19      8.39829e+6 
        4538.73      8.40505e+6 
        4553.72      8.41315e+6 
        4568.72      8.42047e+6 
        4583.72       8.4271e+6 
        4596.53        8.432e+6 
        4608.71      8.43562e+6 
         4623.7      8.43948e+6 
         4638.7      8.44281e+6 
         4653.7      8.44561e+6 
        4668.69      8.44787e+6 
        4683.69       8.4496e+6 
        4698.68      8.45063e+6 
        4713.68      8.45095e+6 
        4724.83      8.45085e+6 
        4738.67      8.45026e+6 
        4753.67      8.44903e+6 
        4768.67      8.44699e+6 
        4783.66      8.44388e+6 
        4798.66      8.43888e+6 
        4813.65      8.43009e+6 
        4828.65      8.41029e+6 
        4839.16      8.37194e+6 
        4850.22      8.20119e+6 
        4860.28      6.22529e+6 
        4870.86      8.13264e+6 
        4882.91      8.35975e+6 
        4893.63      8.39537e+6 
        4908.63      8.40828e+6 
         4921.7      8.41004e+6 
        4933.62      8.40891e+6 
        4948.62      8.40561e+6 
        4963.61      8.40118e+6 
        4978.61      8.39597e+6 
        4993.61      8.39013e+6 
         5008.6      8.38375e+6 
         5023.6      8.37696e+6 
        5038.59      8.36983e+6 
        5053.59      8.36235e+6 
        5068.59      8.35459e+6 
        5083.58      8.34646e+6 
        5098.58      8.33791e+6 
        5113.57      8.32908e+6 
        5128.57      8.31997e+6 
        5143.57      8.31064e+6 
        5158.56      8.30106e+6 
        5173.56      8.29123e+6 
        5188.55      8.28108e+6 
        5203.55      8.27068e+6 
        5218.55      8.26006e+6 
        5233.54      8.24923e+6 
        5248.54      8.23817e+6 
        5263.53      8.22689e+6 
        5278.53      8.21558e+6 
        5293.52      8.20443e+6 
        5308.52      8.19309e+6 
        5323.52      8.18146e+6 
        5338.51      8.16965e+6 
        5353.51      8.15759e+6 
        5368.51      8.14543e+6 
         5383.5      8.13255e+6 
         5398.5      8.11935e+6 
        5413.49      8.10603e+6 
        5428.49      8.09249e+6 
        5443.48      8.07889e+6 
        5458.48      8.06516e+6 
        5473.48      8.05137e+6 
        5488.47      8.03761e+6 
        5503.47      8.02372e+6 
        5518.47      8.00968e+6 
        5533.46      7.99548e+6 
        5548.46      7.98109e+6 
        5563.45      7.96658e+6 
        5578.45      7.95194e+6 
        5593.44      7.93711e+6 
        5608.44      7.92215e+6 
        5623.44      7.90707e+6 
        5638.43      7.89184e+6 
        5653.43      7.87651e+6 
        5668.43      7.86127e+6 
        5682.86      7.84625e+6 
        5693.42      7.83519e+6 
        5704.77      7.82323e+6 
        5715.23      7.81214e+6 
        5728.41      7.79809e+6 
         5743.4      7.78204e+6 
         5758.4      7.76583e+6 
         5773.4      7.74905e+6 
        5788.39      7.73262e+6 
        5803.39       7.7161e+6 
        5818.39      7.69948e+6 
        5833.38      7.68276e+6 
        5848.38      7.66596e+6 
        5863.37      7.64906e+6 
        5878.37      7.63206e+6 
        5893.36      7.61497e+6 
        5908.36      7.59782e+6 
        5923.36      7.58057e+6 
        5938.35      7.56323e+6 
        5953.35      7.54582e+6 
        5968.34      7.52832e+6 
        5983.34      7.51073e+6 
        5998.34      7.49308e+6 
        6013.33      7.47533e+6 
        6028.33      7.45748e+6 
        6043.32      7.43961e+6 
        6058.32      7.42164e+6 
        6073.32       7.4036e+6 
        6088.31      7.38551e+6 
        6103.31      7.36735e+6 
         6118.3      7.34913e+6 
         6133.3      7.33088e+6 
         6148.3      7.31253e+6 
        6163.29      7.29412e+6 
        6178.29      7.27568e+6 
        6193.28      7.25714e+6 
        6208.28      7.23858e+6 
        6223.28      7.21995e+6 
        6238.27      7.20125e+6 
        6252.16      7.18388e+6 
        6262.16      7.17131e+6 
        6273.26      7.15736e+6 
        6284.63      7.14301e+6 
        6295.99      7.12862e+6 
        6306.09       7.1158e+6 
        6316.22      7.10289e+6 
        6328.25       7.0875e+6 
        6343.24      7.06818e+6 
        6358.24      7.04873e+6 
        6373.23      7.02906e+6 
        6388.23      7.00918e+6 
        6403.23      6.98894e+6 
        6418.22      6.96824e+6 
        6433.22      6.94688e+6 
        6448.22      6.92451e+6 
        6463.21      6.90054e+6 
        6478.21      6.87374e+6 
         6493.2       6.8417e+6 
         6508.2      6.79856e+6 
        6523.19      6.72763e+6 
         6536.1      6.60064e+6 
        6546.46      6.35032e+6 
        6556.84      5.52748e+6 
        6566.99      5.19557e+6 
        6577.23      6.23898e+6 
        6587.91      6.51755e+6 
        6598.17      6.61161e+6 
         6608.5      6.64987e+6 
        6623.98      6.66743e+6 
         6634.3      6.66759e+6 
        6644.62      6.66326e+6 
        6665.26      6.64748e+6 
        6701.62      6.60975e+6 
        6721.34       6.5871e+6 
         6736.2      6.56954e+6 
        6780.49      6.51576e+6 
        6824.78      6.46081e+6 
        6913.35      6.35051e+6 
        7001.93      6.23958e+6 
        7071.86      6.15196e+6 
         7090.5      6.12862e+6 
        7109.15      6.10531e+6 
        7146.44      6.05919e+6 
        7221.02       5.9672e+6 
         7295.6       5.8756e+6 
        7346.84      5.81295e+6 
        7370.18      5.78474e+6 
        7393.51      5.75634e+6 
        7440.19      5.70029e+6 
        7533.55      5.58889e+6 
        7575.92      5.53869e+6 
         7626.9      5.47859e+6 
        7677.88      5.41887e+6 
        7728.86      5.36006e+6 
        7779.84      5.30163e+6 
        7830.82      5.24357e+6 
         7881.8      5.18592e+6 
        7903.32       5.1617e+6 
        7932.78      5.12865e+6 
        7962.25      5.09576e+6 
        8021.18      5.03079e+6 
        8077.68      4.96906e+6 
        8097.18      4.94795e+6 
        8108.49      4.93569e+6 
        8155.67      4.88499e+6 
        8200.85      4.83676e+6 
        8216.85      4.81986e+6 
        8232.84      4.80299e+6 
        8264.83      4.76938e+6 
        8289.72      4.74337e+6 
        8328.82      4.70271e+6 
        8343.44      4.68757e+6 
        8367.92      4.66231e+6 
        8388.68      4.64107e+6 
        8408.65      4.62072e+6 
        8432.02        4.597e+6 
        8467.25       4.5614e+6 
        8502.48      4.52606e+6 
        8516.58      4.51196e+6 
        8530.98       4.4976e+6 
        8545.38      4.48337e+6 
        8574.18      4.45506e+6 
        8598.39      4.43134e+6 
         8628.6      4.40194e+6 
        8646.81      4.38425e+6 
        8665.01      4.36663e+6 
        8685.59      4.34683e+6 
        8701.43      4.33163e+6 
        8750.47      4.28479e+6 
        8767.92      4.26826e+6 
        8815.35      4.22356e+6 
        8862.78      4.17954e+6 
        8900.38      4.14511e+6 
        8957.65      4.09299e+6 
        9014.91      4.04122e+6 
        9044.62      4.01492e+6 
        9072.17      3.99048e+6 
        9099.72      3.96617e+6 
        9154.81      3.91838e+6 
         9190.8      3.88741e+6 
         9209.9      3.87098e+6 
        9229.01      3.85411e+6 
        9267.22      3.82244e+6 
         9303.2      3.79222e+6 
        9343.64      3.75848e+6 
        9384.08      3.72505e+6 
        9464.96      3.65955e+6 
        9545.72      3.59304e+6 
        9561.21      3.58245e+6 
        9576.69      3.57067e+6 
        9607.66      3.54661e+6 
        9668.45      3.49958e+6 
        9729.24      3.45349e+6 
        9790.04      3.40803e+6 
        9850.83      3.36311e+6 
        9870.42      3.34875e+6 
        9911.62      3.31872e+6 
        9952.82      3.28896e+6 
        10021.1      3.24002e+6 
        10035.2      3.22887e+6 
        10049.4      3.21457e+6 
        10077.7      3.20056e+6 
          10106      3.18155e+6 
        10162.5      3.14294e+6 
        10201.1      3.11686e+6 
        10219.1       3.1047e+6 
        10237.2      3.09258e+6 
        10273.3      3.06904e+6 
        10345.5      3.02248e+6 
        10417.8      2.97661e+6 
          10490      2.93143e+6 
        10562.2      2.88694e+6 
        10634.4      2.84313e+6 
        10706.7      2.79998e+6 
        10778.9      2.75749e+6 
        10851.1      2.71551e+6 
        10908.6      2.68105e+6 
        10923.4      2.66948e+6 
        10934.4      2.65551e+6 
        10945.4      2.65265e+6 
        10960.2      2.65092e+6 
        10974.9      2.64437e+6 
        11004.4      2.62884e+6 
        11063.3      2.59667e+6 
        11122.2      2.56468e+6 
        11181.1      2.53306e+6 
        11219.1      2.51287e+6 
          11240      2.50185e+6 
        11260.9      2.49088e+6 
        11302.7      2.46995e+6 
        11386.2      2.42867e+6 
        11469.7      2.38821e+6 
        11553.2      2.34843e+6 
        11636.7      2.30934e+6 
        11720.3      2.27094e+6 
        11803.8      2.23322e+6 
        11887.3      2.19615e+6 
        11970.8      2.15974e+6 
        12054.3      2.12396e+6 
        12137.8      2.08883e+6 
        12158.1      2.08041e+6 
        12221.4      2.05433e+6 
        12284.6       2.0286e+6 
        12347.9      2.00445e+6 
        12411.2       1.9806e+6 
        12474.4      1.95703e+6 
        12537.7      1.93374e+6 
          12601       1.9107e+6 
        12664.2      1.88785e+6 
        12727.5      1.86483e+6 
        12763.4      1.85067e+6 
        12777.1      1.84422e+6 
        12790.8      1.83553e+6 
        12804.4      1.81929e+6 
          12818      1.78049e+6 
        12830.8      1.80878e+6 
        12843.6      1.81637e+6 
        12856.4      1.81627e+6 
        12869.2      1.81377e+6 
        12894.8      1.80655e+6 
          12946      1.79007e+6 
        12997.2      1.77316e+6 
        13048.4      1.75629e+6 
        13099.5      1.73953e+6 
        13150.7      1.72293e+6 
        13201.9      1.70649e+6 
        13253.1      1.69021e+6 
        13300.2      1.67538e+6 
        13316.5      1.67043e+6 
        13332.8      1.66565e+6 
        13365.3      1.65613e+6 
        13430.4      1.63726e+6 
        13495.4       1.6186e+6 
        13560.5      1.60015e+6 
        13625.6      1.58194e+6 
        13690.6      1.56392e+6 
        13755.7      1.54611e+6 
        13820.8       1.5285e+6 
        13885.8      1.51111e+6 
        13950.9      1.49393e+6 
          14016      1.47696e+6 
        14081.1      1.46019e+6 
        14146.1      1.44362e+6 
        14211.2      1.42726e+6 
        14276.3      1.41109e+6 
        14332.1      1.39737e+6 
        14387.9      1.38425e+6 
        14429.7       1.3745e+6 
        14443.7      1.37126e+6 
        14457.6      1.36803e+6 
        14485.6      1.36163e+6 
        14499.7      1.35841e+6 
        14541.5      1.34893e+6 
        14581.2      1.33997e+6 
        14597.2      1.33645e+6 
