# Koester WD models
# teff = 5000 K (value for the effective temperature for the model. Temperatures are given in K)
# logg = 8.5 log(cm/s2) (value for Log(G) for the model.)
#
# column 1: WAVELENGTH (ANGSTROM), Wavelength in Angstrom
# column 2: FLUX (ERG/CM2/S/A), Flux in erg/cm2/s/A
         899.23     0.000121485 
        909.241     0.000175483 
        919.251     0.000251314 
        929.261     0.000356932 
        939.271     0.000498863 
         949.28     0.000703038 
        959.289     0.000970881 
        969.297      0.00133032 
        979.305      0.00180466 
        989.312      0.00243854 
        999.319      0.00328177 
        1009.33      0.00439295 
        1019.33      0.00585342 
        1029.34      0.00775596 
        1039.34        0.010211 
        1049.35       0.0133916 
        1059.36       0.0174551 
        1069.36       0.0226496 
        1079.36       0.0292041 
        1089.37       0.0375024 
        1099.37       0.0478807 
        1109.38       0.0608916 
        1119.38       0.0769326 
        1129.38        0.096838 
        1139.39        0.121447 
        1149.39        0.151863 
        1159.39        0.189558 
        1169.39        0.234525 
         1179.4        0.288385 
         1189.4        0.355107 
         1199.4        0.434809 
         1209.4        0.530584 
        1219.41        0.643895 
        1229.41         0.77467 
        1239.41        0.932045 
        1249.41         1.11868 
        1259.41         1.33931 
        1269.41         1.59823 
        1279.42         1.90378 
        1289.42         2.26133 
        1299.42         2.67634 
        1309.42         3.15906 
        1319.42         3.71666 
        1329.42         4.36132 
        1339.42         5.10273 
        1349.42         5.95473 
        1359.42         6.93139 
        1369.42         8.04779 
        1379.42         9.32148 
        1389.42         10.7709 
        1399.42         12.4169 
        1409.42         14.2818 
        1419.42         16.3909 
        1429.42         18.7705 
        1439.42         21.4495 
        1454.42         26.0997 
        1464.42         29.6737 
        1474.42         33.6703 
        1489.42          40.547 
        1504.42         48.6058 
        1514.42         54.7426 
        1529.42         65.2349 
        1544.42         77.4082 
        1559.42         91.4659 
        1570.19         102.776 
        1584.41         119.683 
        1599.41         140.061 
        1614.41         163.545 
        1629.41         190.626 
        1644.41         220.568 
        1659.41         252.083 
        1670.17         276.274 
         1684.4         311.599 
         1699.4         353.878 
         1714.4         403.032 
         1729.4         459.175 
         1744.4         522.686 
        1759.39         593.686 
         1771.7           657.9 
        1784.39          730.26 
        1799.39         824.351 
        1814.38         928.498 
        1829.38         1043.51 
        1840.15         1133.17 
        1850.92         1229.27 
        1861.69         1332.48 
        1876.29         1483.69 
        1888.59         1622.05 
        1900.88         1771.08 
        1913.17         1931.56 
        1925.56         2105.13 
        1937.95          2293.2 
        1950.34         2495.29 
        1962.56         2706.61 
        1974.62         2929.37 
        1992.71         3291.51 
        2004.77         3552.92 
        2015.84         3807.83 
        2031.63         4199.96 
        2047.42         4619.52 
        2059.38         4959.66 
        2074.69         5425.15 
        2089.99         5926.36 
         2105.3         6464.17 
        2116.25         6872.45 
         2127.2         7301.56 
        2138.15         7756.15 
         2149.1         8227.96 
        2160.05          8721.5 
        2176.33          9498.7 
        2187.18         10046.9 
        2198.03         10619.9 
         2214.7         11548.8 
        2231.36         12531.7 
        2248.03         13575.8 
        2263.91         14629.6 
         2279.8         15763.8 
        2295.69         16953.6 
        2310.03         18090.8 
        2322.46         19117.9 
         2334.9         20191.2 
        2347.34         21325.6 
        2359.77         22509.3 
        2377.84         24356.3 
        2388.16         25466.8 
        2398.48         26638.1 
        2409.27         27923.7 
        2420.07         29264.3 
        2430.86         30696.2 
        2441.65           32191 
        2456.19         34306.2 
        2469.99         36534.8 
        2488.39         39716.3 
        2503.55         42590.3 
        2516.47           45184 
        2529.39         47865.6 
        2542.32         50749.6 
        2555.24         53818.6 
        2567.22         56938.2 
        2583.21         61481.9 
        2599.19           66488 
        2615.18         72022.9 
        2631.16         78021.1 
        2647.14           84572 
        2657.67         89190.1 
        2672.86         95552.2 
        2693.12          104574 
        2713.38          114055 
        2733.64          123944 
        2751.69          133112 
        2769.35          142677 
        2787.01          152868 
        2804.67          163469 
        2822.33          174496 
        2839.99          186039 
        2854.55          195914 
         2869.1          206964 
        2883.66          218439 
        2898.21          230349 
        2912.76          242735 
        2927.32          255568 
        2940.15          267232 
        2952.93          279220 
        2965.73          291110 
        2978.53          303361 
        2991.32          316098 
        3004.12          329192 
        3029.71          356458 
        3040.57          368474 
        3051.42          380777 
        3062.27          394851 
        3073.13          409299 
        3094.83          439465 
        3116.54          471248 
        3126.64          486548 
        3138.25          504581 
        3149.86          523056 
        3161.47          543970 
        3173.08          565411 
         3196.3          609852 
        3219.52          656731 
        3237.18          694292 
        3248.29          718627 
        3259.41          737637 
        3270.52          756970 
        3292.75          796444 
        3314.97          836955 
        3327.67          860564 
        3346.73          896601 
        3365.79          934536 
        3403.91      1.01288e+6 
         3438.9      1.08802e+6 
        3451.43      1.11561e+6 
        3463.95      1.14361e+6 
           3489      1.20063e+6 
         3534.6      1.30745e+6 
        3549.92       1.3443e+6 
         3570.6      1.39499e+6 
        3591.28      1.44639e+6 
        3626.33      1.53566e+6 
        3638.96      1.56829e+6 
        3651.32      1.60113e+6 
         3663.4      1.63336e+6 
        3673.95      1.66165e+6 
         3684.5      1.68999e+6 
         3695.3      1.71908e+6 
        3705.37       1.7463e+6 
        3715.64      1.77409e+6 
        3725.75      1.79923e+6 
        3735.82       1.8223e+6 
        3746.45      1.84668e+6 
        3757.47        1.872e+6 
        3768.55      1.89743e+6 
        3778.93      1.92128e+6 
        3790.45      1.94775e+6 
        3800.56      1.97099e+6 
        3811.59      1.99632e+6 
        3822.57      2.02209e+6 
        3832.73      2.04651e+6 
        3842.75      2.07057e+6 
        3853.31      2.09587e+6 
        3863.68      2.12072e+6 
        3873.85      2.14501e+6 
         3884.4      2.17018e+6 
        3894.46      2.19414e+6 
        3908.89      2.22844e+6 
        3923.89      2.26591e+6 
        3935.81      2.29654e+6 
        3946.58      2.32408e+6 
        3957.31      2.35139e+6 
        3967.38      2.37692e+6 
        3977.86      2.40345e+6 
        3988.87      2.43119e+6 
        4003.87      2.46875e+6 
        4018.86      2.50673e+6 
        4032.38      2.54156e+6 
        4043.86      2.57101e+6 
        4058.85      2.60919e+6 
        4073.85      2.64696e+6 
           4084      2.67228e+6 
        4096.52      2.70316e+6 
        4106.79      2.72845e+6 
        4117.77       2.7569e+6 
        4128.84      2.78561e+6 
        4143.83      2.82396e+6 
        4158.83      2.86171e+6 
        4173.82      2.89885e+6 
        4188.82      2.93536e+6 
        4203.81      2.97124e+6 
        4216.52      3.00176e+6 
        4228.81      3.03093e+6 
        4243.81      3.06589e+6 
         4258.8      3.10014e+6 
         4273.8      3.13364e+6 
        4288.79      3.16635e+6 
        4303.79      3.19808e+6 
        4314.07       3.2185e+6 
        4326.14      3.24178e+6 
        4336.17       3.2606e+6 
        4346.17      3.28007e+6 
        4357.43      3.30251e+6 
        4367.98      3.32293e+6 
        4378.77      3.34335e+6 
        4393.77       3.3709e+6 
        4408.76      3.39421e+6 
        4423.76      3.41444e+6 
        4438.75      3.43433e+6 
        4453.75      3.45384e+6 
        4468.74      3.47303e+6 
        4483.74      3.49188e+6 
        4498.74      3.51133e+6 
        4513.73      3.53885e+6 
        4527.19      3.56272e+6 
        4538.73      3.58261e+6 
        4553.72      3.60765e+6 
        4568.72      3.63184e+6 
        4583.72      3.65512e+6 
        4596.53      3.67384e+6 
        4608.71       3.6892e+6 
         4623.7      3.70758e+6 
         4638.7      3.72543e+6 
         4653.7      3.74277e+6 
        4668.69      3.75961e+6 
        4683.69      3.77591e+6 
        4698.68      3.79134e+6 
        4713.68      3.80579e+6 
        4724.83      3.81628e+6 
        4738.67      3.82894e+6 
        4753.67       3.8422e+6 
        4768.67      3.85495e+6 
        4783.66      3.86711e+6 
        4798.66      3.87833e+6 
        4813.65      3.88847e+6 
        4828.65      3.89715e+6 
        4839.16      3.90195e+6 
        4851.78      3.90632e+6 
        4861.84      3.90937e+6 
        4872.13       3.9214e+6 
        4882.71       3.9329e+6 
        4893.63      3.94352e+6 
        4903.92      3.95247e+6 
        4915.55      3.96164e+6 
        4928.62       3.9711e+6 
        4943.62      3.98118e+6 
        4958.61      3.99064e+6 
        4973.61      3.99959e+6 
        4988.61      4.00808e+6 
         5003.6      4.01602e+6 
         5018.6      4.02366e+6 
         5033.6      4.03104e+6 
        5048.59      4.03811e+6 
        5063.59      4.04496e+6 
        5078.58      4.05152e+6 
        5093.58      4.05734e+6 
        5108.57       4.0629e+6 
        5123.57      4.06824e+6 
        5138.57      4.07339e+6 
        5153.56      4.07832e+6 
        5168.56      4.08307e+6 
        5183.56      4.08737e+6 
        5198.55      4.09114e+6 
        5213.55      4.09475e+6 
        5228.54      4.09821e+6 
        5243.54      4.10147e+6 
        5258.53      4.10455e+6 
        5273.53      4.10751e+6 
        5288.53      4.11225e+6 
        5303.52      4.11684e+6 
        5318.52      4.12111e+6 
        5333.52       4.1251e+6 
        5348.51      4.12881e+6 
        5363.51      4.13233e+6 
         5378.5      4.13459e+6 
         5393.5      4.13566e+6 
        5408.49      4.13657e+6 
        5423.49      4.13732e+6 
        5438.49      4.13795e+6 
        5453.48      4.13842e+6 
        5468.48      4.13873e+6 
        5483.48      4.14021e+6 
        5498.47      4.14153e+6 
        5513.47      4.14266e+6 
        5528.46      4.14364e+6 
        5543.46      4.14442e+6 
        5558.45      4.14505e+6 
        5573.45      4.14549e+6 
        5588.45      4.14574e+6 
        5603.44      4.14587e+6 
        5618.44       4.1458e+6 
        5633.43      4.14561e+6 
        5648.43      4.14527e+6 
        5663.43       4.1448e+6 
        5673.98      4.14439e+6 
         5686.2      4.14376e+6 
        5698.42      4.14307e+6 
        5708.88      4.14238e+6 
        5723.41      4.14134e+6 
        5738.41      4.14012e+6 
         5753.4       4.1388e+6 
         5768.4      4.13682e+6 
        5783.39      4.13522e+6 
        5798.39      4.13346e+6 
        5813.39      4.13157e+6 
        5828.38      4.12956e+6 
        5843.38      4.12746e+6 
        5858.37      4.12523e+6 
        5873.37      4.12287e+6 
        5888.37      4.12042e+6 
        5903.36      4.11784e+6 
        5918.36      4.11517e+6 
        5933.35      4.11238e+6 
        5948.35      4.10945e+6 
        5963.35      4.10641e+6 
        5978.34      4.10323e+6 
        5993.34      4.09994e+6 
        6008.33      4.09657e+6 
        6023.33      4.09309e+6 
        6038.32      4.08951e+6 
        6053.32       4.0858e+6 
        6068.32      4.08203e+6 
        6083.31      4.07813e+6 
        6098.31      4.07414e+6 
        6113.31      4.07006e+6 
         6128.3      4.06588e+6 
         6143.3      4.06164e+6 
        6158.29      4.05724e+6 
        6173.29      4.05278e+6 
        6188.28      4.04819e+6 
        6203.28      4.04354e+6 
        6218.28      4.03877e+6 
        6233.27      4.03393e+6 
        6244.38      4.03025e+6 
        6256.04      4.02636e+6 
        6266.59      4.02278e+6 
        6278.26      4.01873e+6 
        6290.52      4.01442e+6 
        6302.31      4.01021e+6 
        6312.59      4.00647e+6 
        6323.25      4.00251e+6 
        6338.24      3.99683e+6 
        6353.24      3.99099e+6 
        6368.24      3.98495e+6 
        6383.23      3.97873e+6 
        6398.23       3.9722e+6 
        6413.22      3.96538e+6 
        6428.22      3.95812e+6 
        6443.22      3.95033e+6 
        6458.21      3.94179e+6 
        6473.21      3.93224e+6 
         6488.2      3.92124e+6 
         6503.2      3.90824e+6 
         6518.2       3.8924e+6 
        6532.67      3.87362e+6 
        6543.19      3.85778e+6 
        6554.43      3.83991e+6 
        6564.44      3.82627e+6 
        6574.47       3.8362e+6 
        6586.28      3.84556e+6 
        6598.17       3.8531e+6 
        6613.66      3.85916e+6 
         6634.3      3.86165e+6 
        6675.58      3.85561e+6 
        6711.48      3.84462e+6 
        6741.75      3.83353e+6 
        6783.26      3.81675e+6 
        6824.78      3.79888e+6 
        6907.81      3.76146e+6 
        6990.84      3.72225e+6 
         7038.6      3.69913e+6 
        7073.87      3.68179e+6 
        7109.15      3.66426e+6 
        7179.69       3.6291e+6 
        7250.24      3.59335e+6 
        7320.78      3.55707e+6 
        7389.14      3.52169e+6 
        7406.65      3.51258e+6 
        7424.15      3.50347e+6 
        7459.17      3.48519e+6 
         7529.2      3.44834e+6 
        7599.23       3.4112e+6 
        7660.63      3.37847e+6 
        7677.88      3.36923e+6 
        7695.14      3.36009e+6 
        7729.65      3.34177e+6 
        7798.67      3.30502e+6 
        7867.69      3.26814e+6 
        7911.17      3.24486e+6 
        7936.71      3.23119e+6 
        7962.25      3.21749e+6 
        8013.32      3.19029e+6 
        8046.24      3.17276e+6 
         8064.4      3.16308e+6 
        8082.55      3.15341e+6 
        8118.86      3.13416e+6 
        8180.09      3.10169e+6 
        8191.47      3.09566e+6 
        8202.85      3.08963e+6 
        8216.85      3.08225e+6 
        8232.84      3.07382e+6 
        8264.83      3.05698e+6 
        8289.72      3.04388e+6 
        8328.82      3.02333e+6 
        8343.44      3.01565e+6 
        8367.92       3.0028e+6 
        8388.68      2.99197e+6 
        8408.65      2.98157e+6 
        8432.02      2.96941e+6 
        8467.25      2.95116e+6 
        8502.48      2.93288e+6 
        8516.58      2.92557e+6 
        8530.98      2.91812e+6 
        8545.38      2.91073e+6 
        8574.18      2.89596e+6 
        8598.39      2.88357e+6 
         8628.6      2.86814e+6 
        8646.81      2.85885e+6 
        8665.01      2.84957e+6 
        8685.59       2.8391e+6 
        8701.43      2.83105e+6 
        8750.47      2.80619e+6 
        8767.92      2.79737e+6 
        8815.35      2.77345e+6 
        8862.78      2.74985e+6 
        8900.38      2.73122e+6 
        8957.65      2.70296e+6 
        9014.91      2.67485e+6 
        9044.62      2.66033e+6 
        9072.17       2.6469e+6 
        9099.72      2.63352e+6 
        9154.81      2.60713e+6 
         9190.8      2.58997e+6 
         9209.9      2.58088e+6 
        9229.01      2.57182e+6 
        9267.22      2.55375e+6 
         9303.2      2.53681e+6 
        9343.64      2.51785e+6 
        9384.08      2.49899e+6 
        9464.96       2.4619e+6 
        9545.72      2.42524e+6 
        9561.21      2.41825e+6 
        9576.69      2.41128e+6 
        9607.66      2.39737e+6 
        9668.45      2.37025e+6 
        9729.24      2.34361e+6 
        9790.04      2.31718e+6 
        9850.83      2.29098e+6 
        9870.42      2.28258e+6 
        9911.62        2.265e+6 
        9952.82      2.24752e+6 
        10021.1      2.21908e+6 
        10035.2      2.21322e+6 
        10049.4      2.20736e+6 
        10077.7      2.19571e+6 
        10134.2      2.17253e+6 
        10144.5      2.16836e+6 
        10190.8      2.14956e+6 
        10237.2      2.13089e+6 
        10329.9      2.09483e+6 
        10422.6      2.05926e+6 
        10515.3      2.02419e+6 
          10608      1.98962e+6 
        10700.7      1.95556e+6 
        10793.4        1.922e+6 
        10834.1      1.90742e+6 
        10886.1      1.88896e+6 
        10938.1      1.87065e+6 
        10990.1      1.85252e+6 
          11042      1.83454e+6 
          11094      1.81672e+6 
          11146      1.79906e+6 
          11198      1.78157e+6 
          11239      1.76787e+6 
          11250      1.76423e+6 
        11260.9       1.7606e+6 
        11282.8      1.75365e+6 
        11326.6      1.73983e+6 
        11414.2      1.71248e+6 
        11501.8      1.68552e+6 
        11589.4      1.65896e+6 
          11677      1.63278e+6 
        11764.6      1.60699e+6 
        11852.2      1.58159e+6 
        11939.8      1.55657e+6 
        12027.4      1.53194e+6 
          12115      1.50769e+6 
        12202.6      1.48382e+6 
        12284.6      1.46182e+6 
        12366.6      1.44121e+6 
        12448.7      1.42086e+6 
        12530.7       1.4008e+6 
        12612.7      1.38099e+6 
        12694.7      1.36145e+6 
        12735.4      1.35186e+6 
        12776.7      1.34217e+6 
        12818.1      1.33254e+6 
        12900.8      1.31357e+6 
        12983.5      1.29486e+6 
        13066.2      1.27641e+6 
        13148.9      1.25821e+6 
        13231.6      1.24028e+6 
        13308.4      1.22386e+6 
        13385.1       1.2087e+6 
        13461.9      1.19371e+6 
        13538.7       1.1789e+6 
        13615.5      1.16426e+6 
        13692.3      1.14979e+6 
        13769.1       1.1355e+6 
        13845.9      1.12138e+6 
        13922.7      1.10742e+6 
        13999.5      1.09364e+6 
        14076.2      1.08004e+6 
          14153      1.06659e+6 
        14229.8      1.05332e+6 
        14281.2      1.04454e+6 
        14306.6      1.04021e+6 
        14332.1       1.0359e+6 
          14383       1.0277e+6 
        14410.1      1.02335e+6 
        14427.1      1.02064e+6 
        14457.6      1.01578e+6 
        14505.2      1.00834e+6 
        14581.2          996548 
        14597.2          994163 
        14613.2          991813 
        14645.2          987120 
        14709.2          977792 
        14773.2          968537 
        14837.1          959354 
        14901.1          950247 
        14965.1          941215 
        15029.1          932258 
        15093.1          923374 
        15157.1          914565 
          15221          905828 
          15285          897173 
          15349          888590 
          15413          880083 
