# Koester WD models
# teff = 5000 K (value for the effective temperature for the model. Temperatures are given in K)
# logg = 8 log(cm/s2) (value for Log(G) for the model.)
#
# column 1: WAVELENGTH (ANGSTROM), Wavelength in Angstrom
# column 2: FLUX (ERG/CM2/S/A), Flux in erg/cm2/s/A
         899.23     0.000136398 
        909.241     0.000196774 
        919.251     0.000281455 
        929.261     0.000399099 
        939.271     0.000555961 
         949.28     0.000784544 
        959.289      0.00108816 
        969.297      0.00150324 
        979.305      0.00205046 
        989.312      0.00277568 
        999.319      0.00373963 
        1009.33      0.00500434 
        1019.33       0.0066598 
        1029.34      0.00881289 
        1039.34       0.0115888 
        1049.35       0.0151684 
        1059.36       0.0197382 
        1069.36       0.0255598 
        1079.36       0.0329072 
        1089.37       0.0421668 
        1099.37       0.0537231 
        1109.38       0.0681641 
        1119.38        0.086041 
        1129.38        0.108156 
        1139.39        0.135411 
        1149.39        0.168909 
        1159.39        0.209678 
        1169.39        0.257107 
         1179.4        0.314055 
         1189.4        0.386708 
         1199.4         0.47335 
         1209.4        0.578194 
        1219.41        0.701282 
        1229.41        0.840901 
        1239.41         1.01077 
        1249.41         1.21274 
        1259.41         1.45078 
        1269.41         1.73236 
        1279.42         2.06745 
        1289.42         2.45737 
        1299.42          2.9093 
        1309.42         3.43326 
        1319.42         4.03786 
        1329.42         4.73878 
        1339.42         5.54124 
        1349.42         6.46285 
        1359.42         7.51956 
        1369.42         8.72511 
        1379.42         10.1005 
        1389.42         11.6657 
        1399.42         13.4406 
        1409.42         15.4495 
        1419.42         17.7233 
        1429.42         20.2934 
        1439.42         23.1669 
        1454.42         28.1635 
        1464.42         32.0078 
        1474.42         36.3052 
        1489.42         43.6747 
        1504.42         52.2645 
        1514.42         58.8357 
        1529.42         70.1364 
        1544.42          83.169 
        1559.42         98.0899 
        1570.19         110.032 
        1583.64          126.84 
        1594.41         141.909 
        1604.41         157.367 
        1619.41          183.74 
        1634.41         214.506 
        1649.41         248.657 
        1664.41         285.308 
        1676.33         317.734 
         1689.4         357.893 
         1704.4          410.11 
         1719.4         469.517 
         1734.4         536.342 
        1749.39         610.691 
        1764.39         692.929 
        1775.55         760.071 
        1789.39         851.717 
        1804.39         960.944 
        1819.38         1081.52 
        1834.77         1217.97 
        1845.54         1321.65 
         1856.3         1433.44 
        1867.07         1552.59 
        1882.44         1737.16 
        1894.73         1897.88 
        1906.98         2070.49 
        1919.37         2258.31 
        1931.76         2459.14 
        1944.14         2677.33 
        1956.53            2911 
        1968.59         3151.36 
        1980.65         3407.84 
        1992.71         3681.41 
        2004.77         3973.11 
        2015.84         4257.61 
        2031.63          4696.3 
        2047.42         5163.58 
        2059.38         5542.24 
        2074.69         6060.29 
        2089.99         6618.46 
         2105.3         7217.75 
        2116.25          7672.9 
         2127.2         8151.84 
        2138.15         8661.06 
         2149.1          9187.9 
        2165.47         10021.5 
        2181.85         10913.1 
        2198.22         11866.9 
         2214.5         12879.7 
        2226.91         13691.6 
        2239.33         14542.2 
        2251.74         15432.2 
        2263.91         16350.5 
        2276.09           17339 
        2288.26         18360.7 
        2300.43           19428 
        2312.08         20498.7 
        2328.94         22092.6 
        2345.79         23795.7 
        2362.35         25572.9 
        2378.92         27472.7 
        2395.48         29492.3 
        2409.27           31293 
        2423.07         33201.3 
        2436.86         35250.2 
        2450.66         37408.2 
        2460.79         39119.4 
        2479.19         42522.1 
        2497.59         46346.7 
        2510.01         49190.1 
        2529.39         53987.6 
        2542.32         57454.1 
        2555.24         61209.5 
        2567.22         65036.3 
        2583.21         70618.3 
        2599.19           76832 
        2615.18         83527.1 
        2631.16         90793.9 
        2652.61          101265 
        2662.74          106152 
        2677.93          113186 
        2688.06          118071 
        2698.19          123106 
        2718.45          133494 
        2738.71          144313 
        2756.11          153998 
        2773.51          164600 
        2799.61          181500 
        2814.29          191451 
        2834.42          205670 
        2844.48          213030 
        2854.55          220544 
        2864.61          228808 
        2874.68          237298 
        2894.81          255002 
        2914.94          273957 
        2935.07          293859 
        2952.98          312387 
         2970.9          330876 
        2988.82          350124 
        3006.73          370240 
        3024.65          391229 
        3042.57          412975 
        3060.28          436553 
        3086.84          475684 
        3104.55          503026 
        3122.26          531372 
        3136.06          554183 
        3149.86          577673 
        3163.66          604596 
        3177.45          632450 
        3198.15          675738 
        3225.75          736292 
        3237.02          761987 
        3248.29          788226 
        3259.57          808643 
        3270.84          829355 
        3282.11          850360 
        3304.65          893262 
        3325.69          934596 
        3346.73          976866 
        3367.77      1.02124e+6 
        3388.81      1.06657e+6 
        3416.61      1.12787e+6 
        3430.89      1.15995e+6 
        3445.17      1.19244e+6 
        3473.72       1.2586e+6 
        3518.06      1.36423e+6 
        3530.83      1.39527e+6 
         3543.6      1.42658e+6 
        3569.14       1.4903e+6 
        3591.28      1.54634e+6 
        3632.17      1.65207e+6 
        3643.12      1.68099e+6 
        3653.96      1.71007e+6 
        3664.52      1.73845e+6 
         3675.2      1.76723e+6 
        3685.83      1.79589e+6 
         3696.2      1.82391e+6 
        3706.73      1.85238e+6 
        3716.76      1.87951e+6 
        3727.04      1.90459e+6 
        3737.83      1.92935e+6 
        3748.27      1.95332e+6 
        3758.93      1.97777e+6 
        3768.97      2.00079e+6 
        3780.73      2.02772e+6 
        3792.84      2.05543e+6 
        3803.83      2.08055e+6 
         3813.9      2.10351e+6 
        3824.13      2.12749e+6 
        3834.39      2.15187e+6 
        3844.59      2.17607e+6 
        3854.64      2.19984e+6 
        3865.17      2.22469e+6 
        3876.32      2.25093e+6 
         3887.1      2.27614e+6 
        3898.89      2.30378e+6 
        3913.89      2.33872e+6 
        3928.22      2.37466e+6 
        3938.89      2.40145e+6 
        3950.65      2.43104e+6 
        3962.28      2.45996e+6 
        3972.79      2.48591e+6 
        3984.18      2.51443e+6 
        3996.36      2.54446e+6 
        4008.87      2.57497e+6 
        4023.86      2.61226e+6 
         4035.9      2.64209e+6 
        4048.86      2.67386e+6 
        4063.85      2.71017e+6 
        4075.42      2.73772e+6 
         4085.7      2.76168e+6 
        4096.52      2.78574e+6 
        4106.79      2.80966e+6 
        4117.77      2.83773e+6 
        4128.84      2.86511e+6 
        4143.83      2.90123e+6 
        4158.83      2.93658e+6 
        4173.82      2.97126e+6 
        4188.82      3.00529e+6 
        4203.81      3.03867e+6 
        4216.52      3.06697e+6 
        4228.81      3.09395e+6 
        4243.81      3.12624e+6 
         4258.8       3.1578e+6 
         4273.8      3.18859e+6 
        4288.79      3.21856e+6 
        4303.79      3.24734e+6 
        4314.07       3.2654e+6 
        4326.14      3.28416e+6 
        4336.17      3.29522e+6 
        4346.17      3.31419e+6 
        4357.43      3.34074e+6 
        4367.98      3.36141e+6 
        4378.77      3.38082e+6 
        4393.77      3.40643e+6 
        4408.76       3.4282e+6 
        4423.76      3.44733e+6 
        4438.75      3.46606e+6 
        4453.75      3.48443e+6 
        4468.74      3.50247e+6 
        4483.74      3.52022e+6 
        4498.74      3.53841e+6 
        4513.73       3.5631e+6 
        4527.19      3.58453e+6 
        4538.73      3.60237e+6 
        4553.72      3.62483e+6 
        4568.72      3.64654e+6 
        4583.72      3.66743e+6 
        4596.53       3.6843e+6 
        4608.71      3.69835e+6 
         4623.7      3.71515e+6 
         4638.7      3.73149e+6 
         4653.7      3.74735e+6 
        4668.69      3.76278e+6 
        4683.69      3.77773e+6 
        4698.68      3.79193e+6 
        4713.68      3.80532e+6 
        4724.83      3.81506e+6 
        4738.67      3.82681e+6 
        4753.67      3.83912e+6 
        4768.67      3.85096e+6 
        4783.66      3.86221e+6 
        4798.66      3.87255e+6 
        4813.65       3.8815e+6 
        4828.65      3.88741e+6 
        4839.16      3.88697e+6 
        4851.78       3.8722e+6 
        4861.84      3.84792e+6 
        4872.13      3.88932e+6 
        4882.71      3.91518e+6 
        4893.63      3.93051e+6 
        4903.92      3.94063e+6 
        4915.55      3.94986e+6 
        4928.62      3.95888e+6 
        4943.62       3.9683e+6 
        4958.61      3.97704e+6 
        4973.61      3.98536e+6 
        4988.61      3.99322e+6 
         5003.6      4.00063e+6 
         5018.6      4.00776e+6 
         5033.6      4.01461e+6 
        5048.59      4.02124e+6 
        5063.59      4.02762e+6 
        5078.58      4.03374e+6 
        5093.58      4.03927e+6 
        5108.57      4.04455e+6 
        5123.57      4.04961e+6 
        5138.57      4.05451e+6 
        5153.56      4.05919e+6 
        5168.56      4.06368e+6 
        5183.56       4.0678e+6 
        5198.55      4.07147e+6 
        5213.55      4.07499e+6 
        5228.54      4.07832e+6 
        5243.54      4.08149e+6 
        5258.53      4.08448e+6 
        5273.53      4.08734e+6 
        5288.53      4.09155e+6 
        5303.52       4.0956e+6 
        5318.52      4.09937e+6 
        5333.52      4.10289e+6 
        5348.51      4.10616e+6 
        5363.51      4.10923e+6 
         5378.5      4.11131e+6 
         5393.5      4.11244e+6 
        5408.49      4.11341e+6 
        5423.49      4.11426e+6 
        5438.49      4.11495e+6 
        5453.48      4.11549e+6 
        5468.48      4.11589e+6 
        5483.48      4.11715e+6 
        5498.47      4.11825e+6 
        5513.47      4.11916e+6 
        5528.46      4.11995e+6 
        5543.46      4.12054e+6 
        5558.45      4.12098e+6 
        5573.45      4.12127e+6 
        5588.45      4.12139e+6 
        5603.44      4.12136e+6 
        5618.44      4.12117e+6 
        5633.43      4.12086e+6 
        5648.43      4.12039e+6 
        5663.43      4.11979e+6 
        5673.98      4.11929e+6 
         5686.2       4.1186e+6 
        5698.42      4.11781e+6 
        5708.88      4.11709e+6 
        5723.41      4.11593e+6 
        5738.41      4.11464e+6 
         5753.4      4.11322e+6 
         5768.4       4.1114e+6 
        5783.39      4.10971e+6 
        5798.39      4.10792e+6 
        5813.39        4.106e+6 
        5828.38      4.10396e+6 
        5843.38      4.10179e+6 
        5858.37       4.0995e+6 
        5873.37      4.09714e+6 
        5888.37      4.09463e+6 
        5903.36      4.09205e+6 
        5918.36      4.08932e+6 
        5933.35      4.08652e+6 
        5948.35       4.0836e+6 
        5963.35      4.08052e+6 
        5978.34      4.07735e+6 
        5993.34      4.07408e+6 
        6008.33      4.07072e+6 
        6023.33      4.06726e+6 
        6038.32      4.06368e+6 
        6053.32      4.06004e+6 
        6068.32      4.05627e+6 
        6083.31      4.05243e+6 
        6098.31      4.04848e+6 
        6113.31      4.04445e+6 
         6128.3      4.04031e+6 
         6143.3       4.0361e+6 
        6158.29      4.03179e+6 
        6173.29       4.0274e+6 
        6188.28      4.02287e+6 
        6203.28      4.01832e+6 
        6218.28      4.01364e+6 
        6233.27      4.00889e+6 
        6244.38      4.00531e+6 
        6256.04      4.00148e+6 
        6266.59      3.99799e+6 
        6278.26      3.99406e+6 
        6290.52      3.98989e+6 
        6302.31       3.9858e+6 
        6312.59      3.98216e+6 
        6323.25      3.97836e+6 
        6338.24      3.97289e+6 
        6353.24       3.9673e+6 
        6368.24      3.96158e+6 
        6383.23      3.95564e+6 
        6398.23      3.94952e+6 
        6413.22      3.94311e+6 
        6428.22      3.93632e+6 
        6443.22      3.92903e+6 
        6458.21      3.92099e+6 
        6473.21      3.91175e+6 
         6488.2      3.90051e+6 
         6503.2      3.88562e+6 
         6518.2       3.8635e+6 
        6532.67      3.82725e+6 
        6543.19      3.78188e+6 
        6554.43      3.70281e+6 
        6564.44      3.63866e+6 
        6574.47      3.72156e+6 
        6586.28      3.78386e+6 
        6598.17      3.81587e+6 
        6613.66      3.83419e+6 
        6623.98      3.83915e+6 
         6634.3      3.84107e+6 
        6654.94      3.83978e+6 
        6680.98      3.83347e+6 
        6696.23      3.82856e+6 
        6711.48      3.82313e+6 
        6741.98      3.81135e+6 
        6781.19      3.79508e+6 
        6802.98      3.78565e+6 
        6824.78      3.77604e+6 
        6868.37      3.75656e+6 
        6955.56      3.71622e+6 
        6976.35      3.70636e+6 
        7042.75      3.67444e+6 
        7109.15      3.64183e+6 
        7175.54      3.60903e+6 
        7241.94       3.5757e+6 
        7308.33      3.54189e+6 
        7355.95      3.51742e+6 
        7374.73      3.50784e+6 
        7393.51       3.4981e+6 
        7431.08      3.47875e+6 
        7506.22       3.4397e+6 
        7581.35      3.40033e+6 
         7635.1        3.372e+6 
        7656.49      3.36069e+6 
        7677.88      3.34935e+6 
        7720.67      3.32688e+6 
        7806.23      3.28174e+6 
        7821.36      3.27373e+6 
         7891.8      3.23641e+6 
        7962.25      3.19899e+6 
        7982.84      3.18815e+6 
        8032.69      3.16182e+6 
        8082.55       3.1355e+6 
        8161.68      3.09391e+6 
        8182.26       3.0831e+6 
        8200.85      3.07333e+6 
        8216.85      3.06497e+6 
        8232.84      3.05661e+6 
        8264.83      3.03992e+6 
        8289.72      3.02694e+6 
        8328.82      3.00656e+6 
        8343.44      2.99894e+6 
        8367.92      2.98621e+6 
        8388.68      2.97547e+6 
        8408.65      2.96516e+6 
        8432.02      2.95311e+6 
        8467.25      2.93495e+6 
        8502.48      2.91683e+6 
        8516.58      2.90959e+6 
        8530.98       2.9022e+6 
        8545.38      2.89487e+6 
        8574.18      2.88023e+6 
        8598.39      2.86795e+6 
         8628.6      2.85265e+6 
        8646.81      2.84344e+6 
        8665.01      2.83424e+6 
        8685.59      2.82386e+6 
        8701.43      2.81588e+6 
        8750.47      2.79122e+6 
        8767.92      2.78247e+6 
        8815.35      2.75875e+6 
        8862.78      2.73536e+6 
        8900.38      2.71688e+6 
        8957.65      2.68885e+6 
        9014.91      2.66103e+6 
        9044.62      2.64663e+6 
        9072.17      2.63331e+6 
        9099.72      2.62003e+6 
        9154.81      2.59385e+6 
         9190.8      2.57683e+6 
         9209.9      2.56782e+6 
        9229.01      2.55883e+6 
        9267.22       2.5409e+6 
         9303.2       2.5241e+6 
        9343.64      2.50529e+6 
        9384.08      2.48657e+6 
        9464.96      2.44978e+6 
        9545.72      2.41339e+6 
        9561.21      2.40646e+6 
        9576.69      2.39954e+6 
        9607.66      2.38574e+6 
        9668.45      2.35882e+6 
        9729.24      2.33239e+6 
        9790.04      2.30616e+6 
        9850.83      2.28016e+6 
        9870.42      2.27182e+6 
        9911.62      2.25438e+6 
        9952.82      2.23702e+6 
        10021.1      2.20879e+6 
        10035.2      2.20297e+6 
        10049.4      2.19716e+6 
        10077.7       2.1856e+6 
        10134.2       2.1626e+6 
        10144.5      2.15846e+6 
        10190.8       2.1398e+6 
        10237.2      2.12126e+6 
        10329.9      2.08549e+6 
        10422.6      2.05019e+6 
        10515.3      2.01539e+6 
          10608      1.98108e+6 
        10700.7      1.94726e+6 
        10793.4      1.91394e+6 
        10834.1      1.89946e+6 
        10886.1       1.8811e+6 
        10938.1      1.86286e+6 
        10990.1      1.84491e+6 
          11042      1.82708e+6 
          11094      1.80939e+6 
          11146      1.79185e+6 
          11198      1.77448e+6 
          11239      1.76087e+6 
          11250      1.75726e+6 
        11260.9      1.75365e+6 
        11282.8      1.74675e+6 
        11326.6      1.73304e+6 
        11414.2      1.70589e+6 
        11501.8      1.67914e+6 
        11589.4      1.65276e+6 
          11677      1.62677e+6 
        11764.6      1.60117e+6 
        11852.2      1.57594e+6 
        11939.8       1.5511e+6 
        12027.4      1.52663e+6 
          12115      1.50255e+6 
        12202.6      1.47884e+6 
        12284.6      1.45697e+6 
        12366.6      1.43652e+6 
        12448.7      1.41634e+6 
        12530.7      1.39642e+6 
        12612.7      1.37676e+6 
        12694.7      1.35732e+6 
        12735.4      1.34775e+6 
        12776.7      1.33802e+6 
        12818.1      1.32831e+6 
        12900.8      1.30974e+6 
        12983.5      1.29124e+6 
        13066.2      1.27293e+6 
        13148.9      1.25487e+6 
        13231.6      1.23706e+6 
        13308.4      1.22075e+6 
        13385.1      1.20572e+6 
        13461.9      1.19086e+6 
        13538.7      1.17618e+6 
        13615.5      1.16167e+6 
        13692.3      1.14733e+6 
        13769.1      1.13315e+6 
        13845.9      1.11915e+6 
        13922.7      1.10531e+6 
        13999.5      1.09164e+6 
        14076.2      1.07814e+6 
          14153      1.06481e+6 
        14229.8      1.05164e+6 
        14281.2      1.04293e+6 
        14306.6      1.03863e+6 
        14332.1      1.03436e+6 
          14383      1.02623e+6 
        14410.1      1.02193e+6 
        14427.1      1.01924e+6 
        14457.6      1.01443e+6 
        14505.2      1.00707e+6 
        14581.2          995382 
        14597.2          993026 
        14613.2          990701 
        14645.2          986064 
        14709.2          976844 
        14773.2          967692 
        14837.1          958613 
        14901.1          949606 
        14965.1          940671 
        15029.1          931812 
        15093.1          923022 
        15157.1          914307 
          15221          905661 
          15285          897094 
          15349          888599 
          15413          880177 
        15471.6          872530 
        15482.4          871129 
