# Koester WD models
# teff = 5500 K (value for the effective temperature for the model. Temperatures are given in K)
# logg = 7 log(cm/s2) (value for Log(G) for the model.)
#
# column 1: WAVELENGTH (ANGSTROM), Wavelength in Angstrom
# column 2: FLUX (ERG/CM2/S/A), Flux in erg/cm2/s/A
         899.23      0.00253615 
        909.237      0.00354268 
        919.251      0.00493393 
        929.261      0.00682461 
        939.271      0.00970639 
         949.28       0.0125077 
        959.289       0.0194553 
        969.297       0.0271656 
        979.305       0.0373787 
        989.312       0.0502661 
        999.319       0.0666536 
        1009.33       0.0874296 
        1019.33        0.113201 
        1029.34        0.144465 
        1039.34         0.18873 
        1049.35        0.240032 
        1059.36        0.303861 
        1069.36        0.381917 
        1079.36        0.478807 
        1089.37        0.595891 
        1099.37        0.739858 
        1109.38        0.912567 
        1119.38         1.12621 
        1129.38         1.38104 
        1139.39         1.68235 
        1149.39          2.0319 
        1159.39         2.41048 
        1169.39         2.79411 
         1179.4         3.18441 
         1189.4         3.75672 
         1199.4         4.46917 
         1209.4         5.21115 
        1219.41          6.1655 
        1229.41         7.65261 
        1239.41         9.14967 
        1249.41         10.8434 
        1259.41         12.8012 
        1269.41         15.2377 
        1279.42           18.13 
        1289.42         21.3662 
        1299.42         24.9587 
        1309.42          29.105 
        1319.42         33.7278 
        1329.42         39.0673 
        1339.42          45.008 
        1349.42         51.7398 
        1359.42         59.4653 
        1369.42         67.9228 
        1379.42         77.4908 
        1389.42         88.3353 
        1399.42         100.329 
        1409.42         113.555 
        1419.42         128.585 
        1429.42         145.274 
        1439.42         163.332 
        1454.42         194.386 
        1464.42         218.431 
        1474.42         244.783 
        1489.42         287.291 
        1504.42         336.125 
        1514.42         374.349 
        1529.42         440.429 
        1544.42         512.953 
        1559.42         588.866 
        1570.19          647.62 
        1584.41         736.524 
        1599.41         843.304 
        1614.41         972.292 
        1629.41         1134.33 
        1644.41         1333.95 
        1659.41         1567.17 
        1670.17         1757.32 
         1684.4         2040.59 
         1699.4         2394.28 
         1714.4         2781.33 
         1729.4         3202.95 
         1744.4          3649.4 
        1759.39         4104.27 
         1771.7         4504.76 
        1784.39         4975.87 
        1799.39         5588.01 
        1819.38         6480.16 
        1834.77         7238.42 
        1845.54          7807.8 
         1856.3         8438.79 
        1867.07          9097.3 
        1882.44         10116.1 
        1894.73         11011.3 
        1907.03         11980.1 
        1919.18         13012.8 
        1931.21         14093.7 
        1943.24         15359.6 
        1953.98           16555 
        1968.59         18178.5 
         1983.2         19935.6 
        1997.81         21867.9 
        2012.42         23970.7 
         2023.2         25705.8 
        2039.36         28490.1 
        2050.14         30390.8 
        2060.91         32398.9 
        2073.15         34847.5 
         2091.5         38893.9 
        2103.73         41828.1 
        2115.68         44891.8 
        2129.45         48778.3 
        2143.22         53243.4 
         2157.7           57865 
        2173.24         63196.6 
        2188.78         69031.8 
        2204.32           75347 
         2214.7         79841.1 
        2225.07         84394.5 
        2235.45         89172.5 
        2245.83         94187.5 
        2259.39          101128 
         2270.7          108859 
        2288.78          122069 
         2300.6          131486 
        2313.13          142216 
        2325.67          151731 
        2344.48          167224 
        2357.02          178363 
        2373.03          193135 
        2383.71          203429 
        2394.39          214187 
        2409.27          229978 
        2421.89          244650 
        2439.04          265644 
        2451.59          281004 
        2465.39          300624 
        2475.96          316374 
        2492.99          343222 
        2510.01          371952 
        2527.04          399830 
        2544.07          429409 
        2555.44          450143 
        2566.81          474707 
        2578.19          502224 
        2593.35          541196 
        2608.52          585618 
        2623.68          628099 
        2638.85          672555 
        2650.36          707964 
        2661.32          740373 
        2672.28          768600 
         2686.9          807462 
        2701.52          847602 
        2716.13          889152 
        2730.75          932120 
        2745.36          976731 
        2756.11      1.01047e+6 
        2766.85      1.04618e+6 
         2777.6      1.08268e+6 
        2799.09      1.15821e+6 
        2820.58       1.2371e+6 
        2842.07       1.3196e+6 
        2854.55      1.36777e+6 
         2879.5      1.46908e+6 
        2904.45       1.5745e+6 
         2929.4      1.68394e+6 
        2952.98      1.79119e+6 
        2976.57      1.89378e+6 
        3000.16      1.99894e+6 
        3023.74      2.10669e+6 
        3043.24      2.19753e+6 
         3059.6      2.27762e+6 
        3075.95      2.36169e+6 
        3108.67       2.5332e+6 
        3149.86      2.75122e+6 
        3191.05      2.97573e+6 
        3216.18      3.11478e+6 
        3232.24      3.20433e+6 
        3248.29      3.29427e+6 
        3264.35      3.36213e+6 
        3280.41      3.42996e+6 
        3296.46      3.49782e+6 
        3310.42      3.55669e+6 
        3320.92      3.60099e+6 
        3346.73      3.70959e+6 
        3383.04      3.85913e+6 
        3445.17      4.11247e+6 
        3470.98        4.212e+6 
        3495.92      4.30637e+6 
        3507.29      4.34856e+6 
         3543.6      4.48211e+6 
        3591.28      4.64953e+6 
        3635.88      4.80007e+6 
        3647.12      4.83739e+6 
        3658.96      4.87635e+6 
        3671.11      4.91578e+6 
        3682.58      4.95247e+6 
         3693.5      4.98696e+6 
        3703.57      5.01825e+6 
        3713.83      5.04986e+6 
        3724.38      5.08083e+6 
        3734.43      5.10625e+6 
        3744.62      5.13591e+6 
        3754.84      5.16343e+6 
        3765.07       5.1907e+6 
         3775.5      5.21856e+6 
        3786.22      5.24734e+6 
        3796.45      5.26276e+6 
        3807.84      5.30458e+6 
        3818.92       5.3338e+6 
        3830.45      5.35704e+6 
        3840.76      5.38516e+6 
        3851.98      5.42041e+6 
        3862.01      5.44617e+6 
        3872.59      5.47159e+6 
         3884.4      5.47982e+6 
        3895.41      5.51645e+6 
        3906.47      5.55418e+6 
        3918.01      5.58264e+6 
        3928.33      5.60749e+6 
        3938.55      5.63124e+6 
        3948.88      5.65367e+6 
        3960.35      5.67026e+6 
        3970.37        5.172e+6 
         3980.9      5.71776e+6 
        3991.38      5.74736e+6 
        4003.87      5.77513e+6 
        4018.86      5.80664e+6 
        4032.38      5.83428e+6 
        4043.86      5.85709e+6 
        4058.85      5.88587e+6 
        4073.85      5.91282e+6 
           4084      5.92759e+6 
        4094.68      5.91254e+6 
        4104.79      5.79746e+6 
        4116.69       5.9842e+6 
        4128.84      6.01266e+6 
        4143.83      6.04056e+6 
        4158.83      6.06651e+6 
        4173.82      6.09142e+6 
        4188.82      6.11546e+6 
        4203.81       6.1387e+6 
        4216.52      6.15802e+6 
        4228.81      6.17625e+6 
        4243.81      6.19777e+6 
         4258.8      6.21853e+6 
         4273.8      6.23851e+6 
        4288.79      6.25746e+6 
        4303.79       6.2747e+6 
        4314.07        6.284e+6 
        4326.14       6.2829e+6 
        4336.17      6.11794e+6 
        4346.64      6.22214e+6 
        4357.43      6.32447e+6 
        4367.98      6.34533e+6 
        4378.77      6.35949e+6 
        4393.77      6.37621e+6 
        4408.76       6.3906e+6 
        4423.76      6.40354e+6 
        4438.75      6.41595e+6 
        4453.75      6.42789e+6 
        4468.74      6.43939e+6 
        4483.74      6.45044e+6 
        4498.74       6.4664e+6 
        4513.73      6.47866e+6 
        4527.19      6.48912e+6 
        4538.73      6.49772e+6 
        4553.72      6.50837e+6 
        4568.72      6.51849e+6 
        4583.72      6.52807e+6 
        4596.53      6.53574e+6 
        4608.71      6.54227e+6 
         4623.7      6.54988e+6 
         4638.7       6.5571e+6 
         4653.7      6.56389e+6 
        4668.69      6.57026e+6 
        4683.69      6.57623e+6 
        4698.68      6.58173e+6 
        4713.68      6.58669e+6 
        4724.83      6.59015e+6 
        4738.67      6.59411e+6 
        4753.67      6.59804e+6 
        4768.67      6.60146e+6 
        4783.66      6.60429e+6 
        4798.66      6.60627e+6 
        4813.65      6.60671e+6 
        4828.65        6.603e+6 
        4839.16      6.59116e+6 
        4850.22      6.52468e+6 
        4860.28      4.92592e+6 
         4870.5       6.4899e+6 
        4882.07      6.59301e+6 
        4893.63      6.61019e+6 
        4908.63      6.61723e+6 
         4921.7      6.61984e+6 
        4933.62       6.6211e+6 
        4948.62      6.62188e+6 
        4963.61      6.62213e+6 
        4978.61      6.62201e+6 
        4993.61      6.62153e+6 
         5008.6      6.62066e+6 
         5023.6      6.61946e+6 
        5038.59      6.61798e+6 
        5053.59      6.61626e+6 
        5068.59      6.61425e+6 
        5083.58      6.61198e+6 
        5098.58      6.60941e+6 
        5113.57      6.60658e+6 
        5128.57       6.6035e+6 
        5143.57      6.60023e+6 
        5158.56      6.59672e+6 
        5173.56      6.59301e+6 
        5188.55      6.58899e+6 
        5203.55      6.58475e+6 
        5218.55      6.58032e+6 
        5233.54      6.57567e+6 
        5248.54       6.5708e+6 
        5263.53      6.56577e+6 
        5278.53      6.56062e+6 
        5293.52      6.55556e+6 
        5308.52      6.55025e+6 
        5323.52      6.54475e+6 
        5338.51      6.53904e+6 
        5353.51      6.53313e+6 
        5368.51      6.52707e+6 
         5383.5       6.5205e+6 
         5398.5      6.51372e+6 
        5413.49      6.50674e+6 
        5428.49      6.49961e+6 
        5443.48      6.49232e+6 
        5458.48      6.48488e+6 
        5473.48       6.4773e+6 
        5488.47      6.46976e+6 
        5503.47      6.46204e+6 
        5518.47      6.45418e+6 
        5533.46      6.44617e+6 
        5548.46      6.43797e+6 
        5563.45      6.42965e+6 
        5578.45       6.4212e+6 
        5593.44      6.41256e+6 
        5608.44      6.40379e+6 
        5623.44       6.3949e+6 
        5638.43      6.38588e+6 
        5653.43      6.37671e+6 
        5668.43      6.36747e+6 
        5682.86       6.3584e+6 
        5693.42      6.35167e+6 
        5704.77      6.34438e+6 
        5715.23       6.3376e+6 
        5728.41      6.32899e+6 
         5743.4      6.31906e+6 
         5758.4      6.30901e+6 
         5773.4      6.29867e+6 
        5788.39       6.2884e+6 
        5803.39      6.27803e+6 
        5818.39      6.26754e+6 
        5833.38      6.25692e+6 
        5848.38      6.24624e+6 
        5863.37      6.23543e+6 
        5878.37      6.22453e+6 
        5893.36      6.21354e+6 
        5908.36      6.20241e+6 
        5923.36      6.19123e+6 
        5938.35      6.17995e+6 
        5953.35      6.16858e+6 
        5968.34      6.15711e+6 
        5983.34      6.14555e+6 
        5998.34       6.1339e+6 
        6013.33      6.12215e+6 
        6028.33       6.1103e+6 
        6043.32      6.09837e+6 
        6058.32      6.08636e+6 
        6073.32       6.0743e+6 
        6088.31      6.06214e+6 
        6103.31      6.04992e+6 
         6118.3      6.03761e+6 
         6133.3      6.02526e+6 
         6148.3      6.01282e+6 
        6163.29      6.00032e+6 
        6178.29      5.98772e+6 
        6193.28      5.97509e+6 
        6208.28      5.96237e+6 
        6223.28      5.94961e+6 
        6238.27      5.93676e+6 
        6252.16      5.92479e+6 
        6262.16      5.91615e+6 
        6273.26      5.90651e+6 
        6284.63      5.89661e+6 
        6295.99      5.88668e+6 
        6306.09      5.87783e+6 
        6316.22      5.86887e+6 
        6328.25      5.85825e+6 
        6343.24       5.8449e+6 
        6358.24      5.83146e+6 
        6373.23      5.81792e+6 
        6388.23      5.80425e+6 
        6403.23      5.79043e+6 
        6418.22      5.77641e+6 
        6433.22      5.76212e+6 
        6448.22      5.74742e+6 
        6463.21      5.73209e+6 
        6478.21      5.71566e+6 
         6493.2      5.69718e+6 
         6508.2      5.67428e+6 
        6523.19      5.63969e+6 
         6536.1       5.5795e+6 
        6546.46      5.44975e+6 
        6556.84      4.88527e+6 
        6567.14      4.63388e+6 
        6578.18      5.40304e+6 
        6588.44      5.52704e+6 
        6603.34      5.57004e+6 
        6613.66      5.57567e+6 
        6623.98      5.57454e+6 
         6634.3      5.57011e+6 
        6654.94      5.55666e+6 
        6680.98      5.53589e+6 
        6696.23      5.52286e+6 
        6711.48      5.50947e+6 
        6741.98      5.48217e+6 
        6781.19      5.44639e+6 
        6802.98      5.42625e+6 
        6824.78      5.40605e+6 
        6868.37      5.36568e+6 
        6955.56      5.28432e+6 
        6976.35      5.26481e+6 
        7042.75      5.20235e+6 
        7109.15      5.13971e+6 
        7175.54      5.07763e+6 
        7241.94      5.01552e+6 
        7308.33      4.95335e+6 
        7355.95      4.90883e+6 
        7374.73      4.89137e+6 
        7393.51       4.8738e+6 
        7431.08      4.83912e+6 
        7506.22      4.76988e+6 
        7581.35      4.70089e+6 
         7635.1      4.65169e+6 
        7656.49      4.63215e+6 
        7677.88      4.61267e+6 
        7720.67      4.57416e+6 
        7806.23       4.4975e+6 
        7821.36      4.48403e+6 
         7891.8      4.42138e+6 
        7962.25      4.35918e+6 
        7982.84      4.34121e+6 
        8032.69      4.29782e+6 
        8082.55      4.25469e+6 
        8161.68      4.18699e+6 
        8182.26      4.16949e+6 
        8200.85      4.15372e+6 
        8216.85      4.14021e+6 
        8232.84      4.12676e+6 
        8264.83      4.09994e+6 
        8289.72      4.07917e+6 
        8328.82      4.04662e+6 
        8343.44       4.0345e+6 
        8367.92      4.01423e+6 
        8388.68      3.99721e+6 
        8408.65       3.9809e+6 
        8432.02      3.96183e+6 
        8467.25      3.93327e+6 
        8502.48      3.90481e+6 
        8516.58      3.89344e+6 
        8530.98      3.88188e+6 
        8545.38      3.87041e+6 
        8574.18      3.84757e+6 
        8598.39      3.82841e+6 
         8628.6      3.80466e+6 
        8646.81      3.79036e+6 
        8665.01      3.77607e+6 
        8685.59      3.76008e+6 
        8701.43      3.74773e+6 
        8750.47      3.70969e+6 
        8767.92      3.69634e+6 
        8815.35      3.65999e+6 
        8862.78      3.62405e+6 
        8900.38      3.59615e+6 
        8957.65      3.55361e+6 
        9014.91      3.51086e+6 
        9044.62      3.48981e+6 
        9072.17      3.46979e+6 
        9099.72      3.44988e+6 
        9154.81       3.4107e+6 
         9190.8      3.38525e+6 
         9209.9      3.37171e+6 
        9229.01      3.35667e+6 
        9267.22      3.33185e+6 
         9303.2      3.30697e+6 
        9343.64      3.27916e+6 
        9384.08      3.25158e+6 
        9464.96      3.19748e+6 
        9545.72      3.13973e+6 
        9561.21      3.13361e+6 
        9576.69      3.12391e+6 
        9607.66      3.10394e+6 
        9668.45      3.06487e+6 
        9729.24       3.0266e+6 
        9790.04      2.98875e+6 
        9850.83      2.95133e+6 
        9870.42      2.93936e+6 
        9911.62      2.91433e+6 
        9952.82      2.88948e+6 
        10021.1      2.84882e+6 
        10035.2      2.83959e+6 
        10045.8      2.82827e+6 
        10056.4        2.825e+6 
        10070.6      2.81964e+6 
        10084.7      2.81184e+6 
          10113      2.79565e+6 
        10169.6      2.76327e+6 
        10215.2      2.73739e+6 
        10226.2      2.73119e+6 
        10237.2        2.725e+6 
        10259.2      2.71298e+6 
        10303.1      2.68908e+6 
          10391      2.64188e+6 
        10478.8      2.59544e+6 
        10566.7      2.54975e+6 
        10654.6      2.50483e+6 
        10742.4      2.46067e+6 
        10830.3      2.41725e+6 
        10898.2      2.38382e+6 
        10918.2      2.37299e+6 
        10933.1      2.35575e+6 
        10944.3      2.35269e+6 
        10955.5      2.35465e+6 
        10985.4      2.34226e+6 
        11025.2      2.32367e+6 
        11104.9      2.28656e+6 
        11184.6      2.25001e+6 
        11260.9      2.21555e+6 
        11337.2      2.18306e+6 
        11413.5      2.15106e+6 
        11489.8      2.11953e+6 
        11566.1      2.08846e+6 
        11642.4      2.05787e+6 
        11718.7      2.02775e+6 
        11795.1      1.99823e+6 
        11871.4      1.96914e+6 
        11947.7      1.94049e+6 
          12024      1.91226e+6 
        12100.3      1.88446e+6 
        12176.6      1.85707e+6 
        12221.2      1.84127e+6 
        12252.9       1.8301e+6 
        12284.6        1.819e+6 
        12348.1      1.79822e+6 
        12411.6      1.77768e+6 
          12475      1.75736e+6 
        12538.5      1.73727e+6 
          12602      1.71739e+6 
        12665.4       1.6977e+6 
        12728.9      1.67806e+6 
        12766.7       1.6659e+6 
        12779.5      1.66123e+6 
        12792.4      1.65525e+6 
        12805.2      1.64282e+6 
        12816.5      1.59084e+6 
        12827.6      1.62983e+6 
        12843.6      1.63988e+6 
        12856.4      1.63822e+6 
        12869.2      1.63525e+6 
          12882      1.63185e+6 
        12894.8      1.62829e+6 
        12920.4      1.62098e+6 
        12971.6       1.6062e+6 
        13022.8      1.59146e+6 
        13073.9      1.57683e+6 
        13125.1      1.56233e+6 
        13176.3      1.54797e+6 
        13227.5      1.53373e+6 
          13249      1.52779e+6 
        13278.7      1.51964e+6 
        13308.4      1.51153e+6 
        13367.7      1.49652e+6 
          13427      1.48166e+6 
        13486.3      1.46694e+6 
        13545.6      1.45236e+6 
        13604.9      1.43792e+6 
        13664.3      1.42363e+6 
        13723.6      1.40947e+6 
        13782.9      1.39545e+6 
        13842.2      1.38157e+6 
        13901.5      1.36782e+6 
        13960.9      1.35421e+6 
        14020.2      1.34074e+6 
        14079.5      1.32741e+6 
        14138.8      1.31421e+6 
        14198.1      1.30115e+6 
        14257.5      1.28822e+6 
        14301.5      1.27871e+6 
        14316.8      1.27543e+6 
        14332.1      1.27215e+6 
        14362.6      1.26589e+6 
        14389.9      1.26033e+6 
        14423.8      1.25345e+6 
        14457.6      1.24661e+6 
        14525.4      1.23317e+6 
        14581.2      1.22219e+6 
        14597.2      1.21914e+6 
        14613.2      1.21613e+6 
