# Koester WD models
# teff = 5500 K (value for the effective temperature for the model. Temperatures are given in K)
# logg = 8.25 log(cm/s2) (value for Log(G) for the model.)
#
# column 1: WAVELENGTH (ANGSTROM), Wavelength in Angstrom
# column 2: FLUX (ERG/CM2/S/A), Flux in erg/cm2/s/A
         899.23      0.00336295 
        909.241      0.00468367 
        919.251      0.00647234 
        929.261      0.00883249 
        939.271       0.0118534 
         949.28       0.0163407 
        959.289       0.0226892 
        969.297       0.0315416 
        979.305       0.0429716 
        989.312       0.0573567 
        999.319       0.0755742 
        1009.33       0.0986693 
        1019.33        0.127443 
        1029.34        0.163181 
        1039.34        0.210526 
        1049.35        0.267387 
        1059.36        0.338117 
        1069.36        0.424781 
        1079.36        0.532079 
        1089.37        0.662031 
        1099.37        0.821439 
        1109.38         1.01303 
        1119.38         1.24878 
        1129.38         1.53042 
        1139.39          1.8642 
        1149.39         2.25284 
        1159.39         2.67685 
        1169.39         3.10514 
         1179.4         3.59935 
         1189.4         4.31994 
         1199.4         5.18159 
         1209.4         6.23754 
        1219.41         7.43414 
        1229.41         8.69398 
        1239.41         10.2905 
        1249.41         12.1442 
        1259.41         14.2913 
        1269.41         16.8883 
        1279.42         20.0057 
        1289.42         23.5323 
        1299.42         27.4624 
        1309.42         31.9946 
        1319.42         37.0497 
        1329.42         42.8846 
        1339.42         49.3739 
        1349.42         56.7199 
        1359.42         65.1397 
        1369.42         74.3558 
        1379.42         84.7696 
        1389.42         96.5663 
        1399.42         109.617 
        1409.42         123.999 
        1419.42         140.313 
        1429.42         158.412 
        1439.42         178.003 
        1454.42         211.671 
        1464.42         237.692 
        1474.42         266.181 
        1489.42         312.171 
        1504.42         364.965 
        1514.42         406.242 
        1529.42         477.506 
        1544.42         555.663 
        1559.42         637.508 
        1570.19         701.229 
        1584.41         797.635 
        1599.41         913.531 
        1614.41         1051.56 
        1629.41          1223.8 
        1644.41         1436.19 
        1659.41         1675.75 
        1670.17         1863.16 
         1684.4         2133.22 
         1699.4         2454.24 
         1714.4         2801.87 
         1729.4         3182.18 
         1744.4         3592.29 
        1759.39         4027.62 
         1771.7         4414.25 
        1784.39         4853.92 
        1799.39         5421.42 
        1819.38         6250.73 
        1834.77         6953.51 
        1845.54         7479.63 
         1856.3         8046.97 
        1867.07         8644.25 
        1882.44         9563.57 
        1894.73         10358.4 
        1906.98         11204.1 
        1919.37         12116.9 
        1931.76         13078.8 
        1944.14         14129.6 
        1956.53         15243.2 
        1968.59         16368.6 
        1980.65         17559.5 
        1992.71         18821.1 
        2004.77         20154.8 
        2015.84         21446.7 
         2027.8           22954 
        2047.42         25524.9 
        2067.03           28315 
        2086.65         31384.9 
        2106.26         34724.3 
        2126.24           38439 
        2136.59         40540.1 
        2155.85         44587.4 
        2166.22           46887 
        2178.22         49653.8 
        2191.02         52751.4 
        2203.82         56016.2 
         2214.7         58927.8 
        2225.57         61898.2 
        2236.45         64974.4 
        2247.33           68165 
        2263.91         73293.4 
         2280.5         79239.8 
        2297.61         85615.9 
        2313.13         91824.4 
        2328.66           97963 
        2344.18          104632 
        2357.06          110505 
        2367.65          115672 
        2378.25          121115 
        2388.85          126781 
        2399.45          132904 
         2419.1          145374 
        2438.76          159703 
        2451.59          169600 
        2465.39          181811 
        2475.96          191875 
        2492.99          209523 
        2510.01          228880 
        2527.04          248746 
        2543.14          268868 
        2555.21          284618 
        2567.28          302521 
        2579.35          322101 
        2595.45          349769 
        2611.55          379781 
        2635.69          427605 
         2645.9          449088 
        2657.67          474842 
        2669.44          496601 
        2681.21          518828 
        2704.75          564905 
        2728.28          612724 
        2747.54          653165 
        2764.68          691119 
        2781.82          731093 
        2798.96          772197 
         2816.1          814417 
        2833.24          857853 
        2846.21          891546 
        2862.88          937652 
         2887.9       1.0129e+6 
        2904.57      1.06497e+6 
        2921.25      1.11857e+6 
        2937.12      1.17105e+6 
        2952.93      1.22472e+6 
        2965.73       1.2665e+6 
        2978.53      1.30897e+6 
        3004.12      1.39604e+6 
        3027.77      1.47917e+6 
         3039.6       1.5217e+6 
        3051.42      1.56492e+6 
        3063.25      1.61449e+6 
        3075.07      1.66491e+6 
         3086.9      1.71617e+6 
        3098.72      1.76826e+6 
        3122.37      1.87498e+6 
        3136.11      1.93844e+6 
        3149.86      2.00292e+6 
         3163.6      2.07439e+6 
        3177.34      2.14711e+6 
        3191.09      2.22105e+6 
        3204.83      2.29621e+6 
        3216.34      2.36004e+6 
        3232.32      2.45004e+6 
        3248.29      2.54158e+6 
        3264.27      2.60867e+6 
        3280.25      2.67626e+6 
        3296.23      2.74432e+6 
        3309.65       2.8018e+6 
        3322.46      2.85696e+6 
        3346.73      2.96214e+6 
        3383.81      3.12585e+6 
        3445.17      3.39999e+6 
        3469.44      3.50677e+6 
        3495.92      3.62351e+6 
        3506.52      3.67026e+6 
         3543.6      3.83394e+6 
        3591.28      4.04128e+6 
        3635.88      4.23308e+6 
        3647.12      4.28168e+6 
        3658.96      4.33304e+6 
        3671.11      4.38535e+6 
        3682.58       4.4343e+6 
         3693.5      4.48045e+6 
        3703.57      4.52267e+6 
        3713.83      4.56533e+6 
        3724.38      4.60636e+6 
        3734.43       4.6412e+6 
        3744.62      4.67657e+6 
        3754.84       4.7116e+6 
        3765.07      4.74641e+6 
         3775.5       4.7816e+6 
        3786.22      4.81751e+6 
        3796.45      4.85137e+6 
        3807.84      4.88888e+6 
        3818.92      4.92517e+6 
        3830.45      4.96372e+6 
        3840.76       4.9979e+6 
        3851.98      5.03487e+6 
        3862.01      5.06748e+6 
        3872.59      5.10138e+6 
         3884.4      5.13789e+6 
        3894.46      5.16974e+6 
        3908.89      5.21567e+6 
        3923.89      5.26408e+6 
        3935.81      5.30291e+6 
        3946.58      5.33716e+6 
        3957.31      5.36942e+6 
        3967.38       5.3922e+6 
        3977.86      5.43087e+6 
        3988.87      5.46848e+6 
        4003.87       5.5145e+6 
        4018.86      5.55946e+6 
        4032.38      5.59967e+6 
        4043.86        5.633e+6 
        4058.85      5.67529e+6 
        4073.85      5.71531e+6 
           4084      5.73894e+6 
        4096.52      5.74594e+6 
        4106.79      5.77202e+6 
        4117.77      5.82803e+6 
        4128.84      5.86337e+6 
        4143.83      5.90503e+6 
        4158.83      5.94418e+6 
        4173.82      5.98178e+6 
        4188.82      6.01816e+6 
        4203.81      6.05335e+6 
        4216.52      6.08285e+6 
        4228.81      6.11068e+6 
        4243.81      6.14354e+6 
         4258.8      6.17515e+6 
         4273.8       6.2054e+6 
        4288.79      6.23383e+6 
        4303.79      6.25915e+6 
        4314.07      6.27159e+6 
        4326.14      6.26858e+6 
        4336.17      6.18693e+6 
        4346.17      6.22884e+6 
        4357.43      6.32987e+6 
        4367.98      6.36317e+6 
        4378.77      6.38585e+6 
        4393.77      6.41177e+6 
        4408.76      6.43219e+6 
        4423.76      6.44925e+6 
        4438.75      6.46552e+6 
        4453.75      6.48114e+6 
        4468.74      6.49622e+6 
        4483.74      6.51073e+6 
        4498.74      6.52565e+6 
        4513.73      6.54689e+6 
        4527.19      6.56499e+6 
        4538.73      6.57981e+6 
        4553.72      6.59816e+6 
        4568.72      6.61553e+6 
        4583.72      6.63193e+6 
        4596.53      6.64485e+6 
        4608.71      6.65521e+6 
         4623.7      6.66734e+6 
         4638.7      6.67884e+6 
         4653.7      6.68971e+6 
        4668.69      6.69995e+6 
        4683.69      6.70963e+6 
        4698.68      6.71833e+6 
        4713.68      6.72606e+6 
        4724.83      6.73146e+6 
        4738.67      6.73765e+6 
        4753.67      6.74374e+6 
        4768.67      6.74896e+6 
        4783.66      6.75301e+6 
        4798.66      6.75508e+6 
        4813.65      6.75323e+6 
        4828.65      6.74079e+6 
        4839.16      6.71104e+6 
        4850.22      6.59753e+6 
        4860.36      6.15407e+6 
        4870.86        6.568e+6 
        4880.94      6.70743e+6 
        4891.06      6.75028e+6 
        4903.34      6.77095e+6 
        4913.63      6.77962e+6 
        4925.16      6.78559e+6 
        4938.62      6.79005e+6 
        4953.62      6.79338e+6 
        4968.61      6.79564e+6 
        4983.61      6.79718e+6 
         4998.6        6.798e+6 
         5013.6      6.79831e+6 
         5028.6      6.79825e+6 
        5043.59      6.79784e+6 
        5058.59      6.79706e+6 
        5073.58      6.79599e+6 
        5088.58      6.79435e+6 
        5103.58      6.79225e+6 
        5118.57      6.78989e+6 
        5133.57      6.78729e+6 
        5148.56      6.78443e+6 
        5163.56      6.78132e+6 
        5178.56      6.77792e+6 
        5193.55      6.77406e+6 
        5208.55      6.76998e+6 
        5223.54      6.76567e+6 
        5238.54      6.76115e+6 
        5253.54       6.7564e+6 
        5268.53      6.75144e+6 
        5283.53      6.74704e+6 
        5298.52      6.74283e+6 
        5313.52      6.73834e+6 
        5328.52      6.73356e+6 
        5343.51      6.72851e+6 
        5358.51       6.7232e+6 
         5373.5       6.7176e+6 
         5388.5      6.71066e+6 
         5403.5      6.70356e+6 
        5418.49      6.69627e+6 
        5433.49       6.6888e+6 
        5448.48      6.68116e+6 
        5463.48      6.67337e+6 
        5478.48      6.66589e+6 
        5493.47      6.65848e+6 
        5508.47      6.65088e+6 
        5523.46      6.64312e+6 
        5538.46      6.63517e+6 
        5553.46      6.62706e+6 
        5568.45      6.61877e+6 
        5583.45      6.61029e+6 
        5598.44      6.60165e+6 
        5613.44      6.59282e+6 
        5628.44      6.58387e+6 
        5643.43      6.57476e+6 
        5658.43      6.56549e+6 
        5673.42      6.55628e+6 
         5686.2      6.54815e+6 
        5698.42      6.54026e+6 
        5708.88      6.53341e+6 
        5723.41      6.52383e+6 
        5738.41      6.51381e+6 
         5753.4      6.50363e+6 
         5768.4      6.49273e+6 
        5783.39       6.4823e+6 
        5798.39      6.47171e+6 
        5813.39      6.46103e+6 
        5828.38      6.45022e+6 
        5843.38      6.43932e+6 
        5858.37      6.42826e+6 
        5873.37      6.41714e+6 
        5888.37       6.4059e+6 
        5903.36      6.39452e+6 
        5918.36      6.38306e+6 
        5933.35       6.3715e+6 
        5948.35      6.35984e+6 
        5963.35      6.34803e+6 
        5978.34      6.33612e+6 
        5993.34      6.32412e+6 
        6008.33      6.31203e+6 
        6023.33       6.2998e+6 
        6038.32      6.28752e+6 
        6053.32      6.27514e+6 
        6068.32      6.26267e+6 
        6083.31       6.2501e+6 
        6098.31      6.23744e+6 
        6113.31      6.22472e+6 
         6128.3       6.2119e+6 
         6143.3      6.19899e+6 
        6158.29      6.18598e+6 
        6173.29      6.17292e+6 
        6188.28      6.15975e+6 
        6203.28      6.14649e+6 
        6218.28      6.13317e+6 
        6233.27      6.11973e+6 
        6244.38      6.10974e+6 
        6256.04      6.09918e+6 
        6266.59      6.08957e+6 
        6278.26      6.07889e+6 
        6290.52      6.06758e+6 
        6302.31      6.05665e+6 
        6312.59      6.04703e+6 
        6323.25      6.03698e+6 
        6338.24      6.02272e+6 
        6353.24      6.00826e+6 
        6368.24      5.99356e+6 
        6383.23      5.97858e+6 
        6398.23      5.96318e+6 
        6413.22      5.94725e+6 
        6428.22       5.9306e+6 
        6443.22      5.91282e+6 
        6458.21      5.89335e+6 
        6473.21       5.8711e+6 
         6488.2       5.8439e+6 
         6503.2      5.80711e+6 
         6518.2      5.74946e+6 
        6532.67      5.64349e+6 
        6543.19      5.48415e+6 
        6553.26      5.15221e+6 
        6563.29      4.46785e+6 
        6574.47      5.23103e+6 
        6586.28      5.51736e+6 
        6598.17      5.62911e+6 
         6608.5      5.67249e+6 
        6623.98      5.69926e+6 
         6634.3      5.70494e+6 
        6644.62       5.7056e+6 
        6665.26      5.69866e+6 
        6701.62      5.67434e+6 
        6721.34      5.65839e+6 
         6736.2      5.64569e+6 
        6780.49      5.60595e+6 
        6824.78      5.56458e+6 
        6913.35      5.48032e+6 
        7001.93      5.39459e+6 
        7071.86      5.32651e+6 
         7090.5      5.30829e+6 
        7109.15      5.29007e+6 
        7146.44      5.25391e+6 
        7221.02      5.18149e+6 
         7295.6      5.10905e+6 
        7346.84      5.05932e+6 
        7370.18      5.03698e+6 
        7393.51      5.01433e+6 
        7440.19      4.96953e+6 
        7533.55      4.88021e+6 
        7575.92      4.83978e+6 
         7626.9      4.79131e+6 
        7677.88      4.74299e+6 
        7728.86      4.69533e+6 
        7779.84      4.64783e+6 
        7830.82      4.60055e+6 
         7881.8      4.55349e+6 
        7903.32      4.53366e+6 
        7932.78      4.50665e+6 
        7962.25      4.47966e+6 
        8021.18      4.42635e+6 
        8077.68      4.37555e+6 
        8097.18      4.35814e+6 
        8108.49      4.34806e+6 
        8155.67      4.30621e+6 
        8200.85      4.26635e+6 
        8216.85      4.25233e+6 
        8232.84      4.23835e+6 
        8264.83      4.21052e+6 
        8289.72      4.18894e+6 
        8328.82      4.15516e+6 
        8343.44      4.14257e+6 
        8367.92      4.12158e+6 
        8388.68      4.10389e+6 
        8408.65      4.08693e+6 
        8432.02      4.06717e+6 
        8467.25      4.03748e+6 
        8502.48      4.00792e+6 
        8516.58      3.99614e+6 
        8530.98      3.98414e+6 
        8545.38      3.97223e+6 
        8574.18      3.94851e+6 
        8598.39      3.92866e+6 
         8628.6      3.90396e+6 
        8646.81      3.88917e+6 
        8665.01      3.87437e+6 
        8685.59      3.85772e+6 
        8701.43      3.84493e+6 
        8750.47      3.80554e+6 
        8767.92      3.79162e+6 
        8815.35      3.75392e+6 
        8862.78      3.71685e+6 
        8900.38      3.68766e+6 
        8957.65      3.64359e+6 
        9014.91      3.59989e+6 
        9044.62      3.57739e+6 
        9072.17      3.55666e+6 
        9099.72      3.53602e+6 
        9154.81      3.49537e+6 
         9190.8      3.46904e+6 
         9209.9      3.45509e+6 
        9229.01      3.44121e+6 
        9267.22      3.41365e+6 
         9303.2      3.38783e+6 
        9343.64      3.35902e+6 
        9384.08      3.33043e+6 
        9464.96      3.27436e+6 
        9545.72       3.2191e+6 
        9561.21       3.2087e+6 
        9576.69      3.19827e+6 
        9607.66      3.17747e+6 
        9668.45      3.13698e+6 
        9729.24      3.09732e+6 
        9790.04      3.05812e+6 
        9850.83      3.01937e+6 
        9870.42      3.00697e+6 
        9911.62      2.98106e+6 
        9952.82      2.95535e+6 
        10021.1      2.91349e+6 
        10035.2      2.90483e+6 
        10049.4      2.89604e+6 
        10077.7      2.87931e+6 
        10134.2      2.84563e+6 
        10144.5      2.83956e+6 
        10190.8      2.81222e+6 
        10237.2      2.78513e+6 
        10329.9      2.73288e+6 
        10422.6      2.68156e+6 
        10515.3      2.63115e+6 
          10608      2.58167e+6 
        10700.7      2.53308e+6 
        10793.4      2.48537e+6 
        10834.1      2.46466e+6 
        10886.1      2.43833e+6 
        10938.1      2.41124e+6 
        10990.1      2.38693e+6 
          11042      2.36186e+6 
          11094      2.33691e+6 
          11146      2.31219e+6 
          11198      2.28772e+6 
          11239       2.2686e+6 
          11250      2.26352e+6 
        11260.9      2.25846e+6 
        11282.8      2.24875e+6 
        11326.6      2.22946e+6 
        11414.2      2.19137e+6 
        11501.8      2.15393e+6 
        11589.4      2.11714e+6 
          11677      2.08098e+6 
        11764.6      2.04547e+6 
        11852.2      2.01057e+6 
        11939.8       1.9763e+6 
        12027.4      1.94263e+6 
          12115      1.90957e+6 
        12202.6      1.87711e+6 
        12284.6      1.84724e+6 
        12366.6      1.81921e+6 
        12448.7       1.7916e+6 
        12530.7      1.76441e+6 
        12612.7      1.73759e+6 
        12694.7      1.71101e+6 
        12735.4      1.69771e+6 
        12776.7      1.68345e+6 
        12818.1      1.66687e+6 
        12859.4      1.65775e+6 
        12900.8       1.6463e+6 
        12983.5      1.62182e+6 
        13066.2      1.59728e+6 
        13148.9      1.57306e+6 
        13231.6      1.54921e+6 
        13308.4       1.5274e+6 
        13385.1      1.50712e+6 
        13461.9       1.4871e+6 
        13538.7      1.46735e+6 
        13615.5      1.44787e+6 
        13692.3      1.42867e+6 
        13769.1      1.40971e+6 
        13845.9      1.39102e+6 
        13922.7      1.37259e+6 
        13999.5      1.35441e+6 
        14076.2      1.33648e+6 
          14153       1.3188e+6 
        14229.8      1.30138e+6 
        14281.2      1.28987e+6 
        14306.6       1.2842e+6 
        14332.1      1.27856e+6 
          14383      1.26774e+6 
        14410.1      1.26201e+6 
        14427.1      1.25844e+6 
        14457.6      1.25204e+6 
        14505.2      1.24223e+6 
        14581.2      1.22669e+6 
        14597.2      1.22352e+6 
        14613.2      1.22038e+6 
        14645.2      1.21411e+6 
        14709.2      1.20168e+6 
        14773.2      1.18938e+6 
        14837.1      1.17719e+6 
        14901.1      1.16513e+6 
        14965.1      1.15318e+6 
        15029.1      1.14135e+6 
        15093.1      1.12965e+6 
        15157.1      1.11807e+6 
          15221       1.1066e+6 
          15285      1.09526e+6 
          15349      1.08403e+6 
          15413      1.07292e+6 
        15471.6      1.06284e+6 
        15482.4        1.061e+6 
        15493.1       1.0591e+6 
        15514.7      1.05531e+6 
        15557.9      1.04778e+6 
        15644.2      1.03289e+6 
