# Koester WD models
# teff = 5250 K (value for the effective temperature for the model. Temperatures are given in K)
# logg = 9 log(cm/s2) (value for Log(G) for the model.)
#
# column 1: WAVELENGTH (ANGSTROM), Wavelength in Angstrom
# column 2: FLUX (ERG/CM2/S/A), Flux in erg/cm2/s/A
         899.23     0.000658396 
        909.241      0.00093354 
        919.251      0.00131288 
        929.261      0.00183155 
        939.271      0.00249699 
         949.28      0.00348588 
        959.289       0.0047647 
        969.297      0.00656571 
        979.305      0.00883199 
        989.312       0.0117394 
        999.319        0.015567 
        1009.33       0.0205343 
        1019.33        0.026964 
        1029.34       0.0352037 
        1039.34       0.0456775 
        1049.35       0.0590305 
        1059.36       0.0758531 
        1069.36       0.0970366 
        1079.36        0.123422 
        1089.37        0.156317 
        1099.37        0.196911 
        1109.38        0.246967 
        1119.38         0.30818 
        1129.38        0.382998 
        1139.39        0.474151 
        1149.39        0.584782 
        1159.39        0.716365 
        1169.39        0.862848 
         1179.4          1.0362 
         1189.4         1.26603 
         1199.4         1.53646 
         1209.4         1.86405 
        1219.41         2.23982 
        1229.41         2.64595 
        1239.41         3.14781 
        1249.41         3.74223 
        1259.41         4.43712 
        1269.41         5.25595 
        1279.42         6.23402 
        1289.42          7.3632 
        1299.42          8.6511 
        1309.42         10.1368 
        1319.42         11.8302 
        1329.42         13.7784 
        1339.42         15.9901 
        1349.42         18.5104 
        1359.42         21.3898 
        1369.42         24.6248 
        1379.42         28.2958 
        1389.42         32.4596 
        1399.42         37.1248 
        1409.42         42.3487 
        1419.42         48.2633 
        1429.42         54.8802 
        1439.42         62.1885 
        1454.42         74.7963 
        1464.42         84.4938 
        1474.42         95.2644 
        1489.42         113.297 
        1504.42         134.199 
        1514.42         150.192 
        1529.42         177.573 
        1544.42         208.685 
        1559.42         243.385 
        1570.19         270.728 
        1584.41         311.638 
        1599.41         360.875 
        1614.41         418.155 
        1629.41         486.457 
        1644.41         564.346 
        1659.41         644.733 
        1670.17         703.638 
         1684.4         788.562 
         1699.4         888.788 
         1714.4         1005.47 
         1729.4         1137.89 
         1744.4         1286.22 
        1759.39          1450.3 
         1771.7         1597.71 
        1784.39         1763.18 
        1799.39         1977.78 
        1819.38         2296.78 
        1834.77         2569.98 
        1845.54         2776.51 
         1856.3         2997.42 
        1867.07         3232.32 
        1882.44         3595.05 
        1894.73         3909.59 
        1906.98         4245.27 
        1919.37         4608.84 
        1931.76         4995.67 
        1944.14            5413 
        1956.53         5859.13 
        1968.59         6315.42 
        1980.65         6799.85 
        1992.71         7313.41 
        2004.77         7857.78 
        2015.84         8385.35 
        2031.63         9191.58 
        2047.42         10050.3 
        2059.38         10742.6 
        2074.69         11685.4 
        2089.99         12694.5 
         2105.3         13770.2 
        2116.25         14582.7 
         2127.2         15432.9 
        2138.15         16328.5 
         2149.1           17257 
        2165.47         18720.3 
        2181.85         20278.2 
        2198.22         21934.8 
         2214.5         23683.8 
        2226.91           25071 
        2239.33         26513.2 
        2251.62         27991.8 
        2263.91         29527.3 
        2276.21         31153.8 
         2288.5         32830.6 
        2300.79         34569.8 
        2312.95         36382.8 
        2324.96         38220.6 
        2336.98         40152.7 
           2349         42188.4 
        2359.67         44062.7 
         2370.4         46064.5 
        2381.12         48148.7 
        2391.85         50308.5 
        2402.58         52636.4 
        2415.97         55677.5 
        2429.36         58948.2 
        2442.71         62451.1 
        2456.19           66189 
        2469.99         70477.2 
        2488.39         76641.7 
        2503.55           82316 
        2516.47         87408.5 
        2529.39         92427.9 
        2542.32         98204.6 
        2555.24          104360 
        2567.22          110705 
        2583.21          120133 
        2599.19          130466 
        2615.18          141925 
        2631.16          154425 
        2647.14          168259 
        2657.67          177835 
         2667.8          186505 
        2677.93          195402 
        2688.06          204627 
        2698.19          214119 
        2718.45          233567 
        2737.28          252309 
        2756.11          271779 
        2774.94          292754 
        2793.77          314439 
         2812.6          336854 
        2831.43          359935 
        2845.97          378295 
        2863.12          401382 
        2888.83          439311 
        2905.98          465857 
        2923.12          493324 
        2940.26          521743 
        2952.98          543461 
        2978.42          586674 
        3003.85          632189 
        3029.29          679671 
        3040.36          700946 
        3051.42          722601 
        3062.49          747416 
        3073.55          772728 
        3095.68          824835 
        3117.81          878980 
        3130.03          909818 
        3149.86          961720 
        3169.69      1.02149e+6 
        3189.51      1.08346e+6 
        3209.34      1.14761e+6 
        3229.17      1.21382e+6 
        3243.51      1.26301e+6 
        3257.86      1.30503e+6 
         3272.2      1.34353e+6 
        3286.54      1.38271e+6 
        3300.88      1.42253e+6 
           3320      1.47638e+6 
        3346.73       1.5531e+6 
        3373.46      1.63374e+6 
        3400.19      1.71598e+6 
        3445.17      1.85765e+6 
        3490.14      2.00324e+6 
        3526.63      2.12382e+6 
         3543.6       2.1806e+6 
        3560.58      2.23814e+6 
        3591.28      2.34316e+6 
        3635.88      2.49835e+6 
        3647.12      2.53838e+6 
        3658.96      2.58081e+6 
        3671.11      2.62437e+6 
        3682.58      2.66545e+6 
         3693.5      2.70453e+6 
        3703.57      2.74055e+6 
        3713.83       2.7772e+6 
        3724.38      2.81256e+6 
        3734.43      2.84268e+6 
        3744.62       2.8732e+6 
        3754.84      2.90371e+6 
        3765.07       2.9342e+6 
         3775.5      2.96522e+6 
        3786.22      2.99704e+6 
        3796.45      3.02729e+6 
        3807.84      3.06085e+6 
        3818.92      3.09358e+6 
        3830.45      3.12882e+6 
        3840.76      3.16016e+6 
        3851.98      3.19415e+6 
        3862.01      3.22441e+6 
        3872.59       3.2562e+6 
         3884.4      3.29154e+6 
        3894.46      3.32151e+6 
        3908.89       3.3643e+6 
        3923.89      3.41102e+6 
        3935.81      3.44941e+6 
        3946.58       3.4839e+6 
        3957.31      3.51799e+6 
        3967.38      3.54975e+6 
        3977.86      3.58267e+6 
        3988.87      3.61698e+6 
        4003.87      3.66319e+6 
        4018.86      3.70975e+6 
        4032.38      3.75207e+6 
        4043.86       3.7876e+6 
        4058.85       3.8334e+6 
        4073.85      3.87852e+6 
           4084      3.90861e+6 
        4096.52      3.94518e+6 
        4106.79      3.97503e+6 
        4117.77      4.00855e+6 
        4128.84      4.04222e+6 
        4143.83      4.08709e+6 
        4158.83      4.13101e+6 
        4173.82      4.17405e+6 
        4188.82      4.21617e+6 
        4203.81      4.25739e+6 
        4216.52      4.29236e+6 
        4228.81      4.32566e+6 
        4243.81       4.3654e+6 
         4258.8       4.4041e+6 
         4273.8       4.4418e+6 
        4288.79      4.47837e+6 
        4303.79      4.51368e+6 
        4314.07       4.5363e+6 
        4326.14        4.562e+6 
        4336.17      4.58274e+6 
        4346.17      4.60426e+6 
        4357.43      4.62904e+6 
        4367.98      4.65147e+6 
        4378.77       4.6739e+6 
        4393.77       4.7041e+6 
        4408.76      4.72907e+6 
        4423.76      4.75034e+6 
        4438.75      4.77107e+6 
        4453.75      4.79134e+6 
        4468.74      4.81113e+6 
        4483.74      4.83051e+6 
        4498.74      4.85056e+6 
        4513.73      4.88037e+6 
        4527.19      4.90607e+6 
        4538.73      4.92734e+6 
        4553.72      4.95398e+6 
        4568.72      4.97946e+6 
        4583.72      5.00387e+6 
        4596.53      5.02331e+6 
        4608.71      5.03896e+6 
         4623.7      5.05749e+6 
         4638.7       5.0754e+6 
         4653.7      5.09262e+6 
        4668.69      5.10917e+6 
        4683.69       5.1251e+6 
        4698.68      5.13983e+6 
        4713.68      5.15341e+6 
        4724.83      5.16311e+6 
        4738.67      5.17471e+6 
        4753.67      5.18664e+6 
        4768.67      5.19786e+6 
        4783.66      5.20823e+6 
        4798.66      5.21737e+6 
        4813.65      5.22507e+6 
        4828.65      5.23088e+6 
        4839.16      5.23358e+6 
        4851.78      5.23559e+6 
        4861.84      5.23622e+6 
        4872.13      5.24853e+6 
        4882.71      5.25972e+6 
        4893.63      5.27018e+6 
        4903.92      5.27885e+6 
        4915.55      5.28755e+6 
        4928.62      5.29619e+6 
        4943.62      5.30502e+6 
        4958.61        5.313e+6 
        4973.61      5.32029e+6 
        4988.61      5.32688e+6 
         5003.6      5.33279e+6 
         5018.6      5.33832e+6 
         5033.6      5.34347e+6 
        5048.59      5.34825e+6 
        5063.59      5.35271e+6 
        5078.58      5.35686e+6 
        5093.58      5.36009e+6 
        5108.57      5.36298e+6 
        5123.57      5.36565e+6 
        5138.57      5.36804e+6 
        5153.56      5.37018e+6 
        5168.56      5.37209e+6 
        5183.56      5.37357e+6 
        5198.55      5.37448e+6 
        5213.55       5.3752e+6 
        5228.54       5.3757e+6 
        5243.54      5.37599e+6 
        5258.53      5.37608e+6 
        5273.53      5.37599e+6 
        5288.53      5.37778e+6 
        5303.52      5.37935e+6 
        5318.52      5.38061e+6 
        5333.52      5.38152e+6 
        5348.51      5.38211e+6 
        5363.51      5.38258e+6 
         5378.5      5.38158e+6 
         5393.5      5.37932e+6 
        5408.49      5.37687e+6 
        5423.49      5.37423e+6 
        5438.49      5.37146e+6 
        5453.48      5.36851e+6 
        5468.48       5.3654e+6 
        5483.48      5.36348e+6 
        5498.47      5.36135e+6 
        5513.47      5.35905e+6 
        5528.46      5.35654e+6 
        5543.46      5.35384e+6 
        5558.45      5.35098e+6 
        5573.45       5.3479e+6 
        5588.45       5.3446e+6 
        5603.44      5.34115e+6 
        5618.44      5.33753e+6 
        5633.43      5.33373e+6 
        5648.43      5.32981e+6 
        5663.43      5.32569e+6 
        5673.98      5.32277e+6 
         5686.2      5.31919e+6 
        5698.42      5.31548e+6 
        5708.88      5.31224e+6 
        5723.41      5.30763e+6 
        5738.41      5.30273e+6 
         5753.4       5.2977e+6 
         5768.4      5.29145e+6 
        5783.39      5.28608e+6 
        5798.39      5.28058e+6 
        5813.39      5.27495e+6 
        5828.38      5.26917e+6 
        5843.38      5.26327e+6 
        5858.37      5.25724e+6 
        5873.37      5.25111e+6 
        5888.37      5.24486e+6 
        5903.36      5.23848e+6 
        5918.36      5.23198e+6 
        5933.35      5.22535e+6 
        5948.35      5.21859e+6 
        5963.35      5.21168e+6 
        5978.34      5.20465e+6 
        5993.34      5.19751e+6 
        6008.33      5.19026e+6 
        6023.33      5.18291e+6 
        6038.32      5.17543e+6 
        6053.32      5.16786e+6 
        6068.32      5.16016e+6 
        6083.31      5.15237e+6 
        6098.31      5.14445e+6 
        6113.31      5.13647e+6 
         6128.3      5.12837e+6 
         6143.3      5.12014e+6 
        6158.29      5.11181e+6 
        6173.29      5.10339e+6 
        6188.28      5.09485e+6 
        6203.28      5.08618e+6 
        6218.28      5.07744e+6 
        6233.27      5.06855e+6 
        6244.38      5.06189e+6 
        6256.04      5.05482e+6 
        6266.59      5.04838e+6 
        6278.26      5.04116e+6 
        6290.52      5.03349e+6 
        6302.31      5.02598e+6 
        6312.59      5.01939e+6 
        6323.25      5.01241e+6 
        6338.24      5.00245e+6 
        6353.24      4.99227e+6 
        6368.24      4.98178e+6 
        6383.23        4.971e+6 
        6398.23      4.95979e+6 
        6413.22      4.94807e+6 
        6428.22      4.93576e+6 
        6443.22      4.92259e+6 
        6458.21      4.90836e+6 
        6473.21      4.89275e+6 
         6488.2      4.87522e+6 
         6503.2      4.85527e+6 
         6518.2      4.83221e+6 
        6532.67      4.80661e+6 
        6543.19      4.78625e+6 
        6554.43      4.76375e+6 
        6564.44      4.74472e+6 
        6574.47      4.75593e+6 
        6586.28      4.76445e+6 
        6598.17      4.77161e+6 
        6613.66      4.77751e+6 
         6634.3      4.77959e+6 
        6675.58       4.7701e+6 
        6711.48      4.75383e+6 
        6741.75      4.73724e+6 
        6783.26      4.71204e+6 
        6824.78      4.68528e+6 
        6907.81      4.62923e+6 
        6990.84      4.57111e+6 
         7038.6      4.53703e+6 
        7073.87      4.51167e+6 
        7109.15      4.48613e+6 
        7179.69      4.43517e+6 
        7250.24      4.38375e+6 
        7320.78        4.332e+6 
        7389.14      4.28212e+6 
        7406.65      4.26927e+6 
        7424.15      4.25642e+6 
        7459.17      4.23069e+6 
         7529.2       4.1792e+6 
        7599.23      4.12761e+6 
        7660.63      4.08241e+6 
        7677.88      4.06968e+6 
        7695.14      4.05712e+6 
        7729.65      4.03195e+6 
        7798.67      3.98172e+6 
        7867.69      3.93155e+6 
        7911.17      3.90004e+6 
        7936.71      3.88153e+6 
        7962.25      3.86309e+6 
        8013.32      3.82646e+6 
        8046.24      3.80293e+6 
         8064.4      3.78999e+6 
        8082.55      3.77704e+6 
        8118.86      3.75128e+6 
        8180.09      3.70802e+6 
        8191.47      3.70001e+6 
        8202.85        3.692e+6 
        8216.85       3.6822e+6 
        8232.84      3.67101e+6 
        8264.83      3.64868e+6 
        8289.72      3.63137e+6 
        8328.82      3.60422e+6 
        8343.44      3.59408e+6 
        8367.92      3.57717e+6 
        8388.68      3.56291e+6 
        8408.65      3.54925e+6 
        8432.02      3.53329e+6 
        8467.25      3.50928e+6 
        8502.48      3.48535e+6 
        8516.58       3.4758e+6 
        8530.98      3.46609e+6 
        8545.38      3.45641e+6 
        8574.18      3.43715e+6 
        8598.39      3.42101e+6 
         8628.6      3.40093e+6 
        8646.81      3.38887e+6 
        8665.01      3.37684e+6 
        8685.59      3.36323e+6 
        8701.43       3.3528e+6 
        8750.47      3.32063e+6 
        8767.92      3.30926e+6 
        8815.35      3.27838e+6 
        8862.78        3.248e+6 
        8900.38      3.22403e+6 
        8957.65      3.18777e+6 
        9014.91      3.15177e+6 
        9044.62      3.13322e+6 
        9072.17      3.11608e+6 
        9099.72      3.09902e+6 
        9154.81      3.06539e+6 
         9190.8      3.04356e+6 
         9209.9      3.03202e+6 
        9229.01      3.02052e+6 
        9267.22       2.9976e+6 
         9303.2      2.97615e+6 
        9343.64      2.95218e+6 
        9384.08      2.92836e+6 
        9464.96      2.88158e+6 
        9545.72      2.83547e+6 
        9561.21       2.8267e+6 
        9576.69      2.81795e+6 
        9607.66      2.80052e+6 
        9668.45      2.76656e+6 
        9729.24      2.73324e+6 
        9790.04      2.70025e+6 
        9850.83       2.6676e+6 
        9870.42      2.65715e+6 
        9911.62       2.6353e+6 
        9952.82       2.6136e+6 
        10021.1      2.57831e+6 
        10035.2      2.57104e+6 
        10049.4       2.5638e+6 
        10077.7      2.54937e+6 
        10134.2      2.52071e+6 
        10144.5      2.51556e+6 
        10190.8      2.49235e+6 
        10237.2      2.46933e+6 
        10329.9      2.42487e+6 
        10422.6      2.38111e+6 
        10515.3      2.33808e+6 
          10608      2.29576e+6 
        10700.7      2.25415e+6 
        10793.4      2.21326e+6 
        10834.1      2.19551e+6 
        10886.1      2.17307e+6 
        10938.1      2.15083e+6 
        10990.1      2.12885e+6 
          11042      2.10707e+6 
          11094      2.08551e+6 
          11146      2.06417e+6 
          11198      2.04305e+6 
          11239      2.02653e+6 
          11250      2.02214e+6 
        11260.9      2.01776e+6 
        11282.8      2.00936e+6 
        11326.6      1.99265e+6 
        11414.2      1.95963e+6 
        11501.8      1.92715e+6 
        11589.4       1.8952e+6 
          11677      1.86377e+6 
        11764.6      1.83285e+6 
        11852.2      1.80245e+6 
        11939.8      1.77257e+6 
        12027.4      1.74318e+6 
          12115      1.71429e+6 
        12202.6      1.68591e+6 
        12284.6      1.65977e+6 
        12366.6      1.63519e+6 
        12448.7      1.61096e+6 
        12530.7      1.58709e+6 
        12612.7      1.56357e+6 
        12694.7       1.5404e+6 
        12735.4      1.52903e+6 
        12776.7      1.51757e+6 
        12818.1      1.50617e+6 
        12900.8      1.48376e+6 
        12983.5      1.46167e+6 
        13066.2      1.43992e+6 
        13148.9       1.4185e+6 
        13231.6      1.39741e+6 
        13308.4      1.37813e+6 
        13385.1      1.36017e+6 
        13461.9      1.34245e+6 
        13538.7      1.32496e+6 
        13615.5      1.30769e+6 
        13692.3      1.29066e+6 
        13769.1      1.27384e+6 
        13845.9      1.25724e+6 
        13922.7      1.24087e+6 
        13999.5      1.22472e+6 
        14076.2      1.20878e+6 
          14153      1.19305e+6 
        14229.8      1.17754e+6 
        14281.2       1.1673e+6 
        14306.6      1.16225e+6 
        14332.1      1.15722e+6 
          14383      1.14759e+6 
        14410.1      1.14249e+6 
        14427.1      1.13931e+6 
        14457.6      1.13361e+6 
        14505.2      1.12488e+6 
        14581.2      1.11104e+6 
        14597.2      1.10822e+6 
        14613.2      1.10543e+6 
        14645.2      1.09987e+6 
        14709.2      1.08884e+6 
        14773.2       1.0779e+6 
        14837.1      1.06706e+6 
        14901.1      1.05633e+6 
        14965.1       1.0457e+6 
        15029.1      1.03517e+6 
        15093.1      1.02474e+6 
        15157.1      1.01441e+6 
          15221      1.00418e+6 
          15285          994056 
          15349          984032 
          15413          974107 
        15471.6          965107 
        15482.4          963460 
        15493.1          961777 
        15514.7          958425 
        15557.9          951752 
        15644.2          938545 
