# Koester WD models
# teff = 5250 K (value for the effective temperature for the model. Temperatures are given in K)
# logg = 8.75 log(cm/s2) (value for Log(G) for the model.)
#
# column 1: WAVELENGTH (ANGSTROM), Wavelength in Angstrom
# column 2: FLUX (ERG/CM2/S/A), Flux in erg/cm2/s/A
         899.23     0.000699488 
        909.241     0.000991147 
        919.251      0.00139299 
        929.261      0.00194171 
        939.271      0.00263525 
         949.28      0.00369165 
        959.289      0.00505765 
        969.297      0.00697258 
        979.305      0.00940062 
        989.312       0.0125529 
        999.319       0.0166564 
        1009.33        0.021974 
        1019.33       0.0288341 
        1029.34       0.0376108 
        1039.34       0.0487933 
        1049.35       0.0629773 
        1059.36       0.0808401 
        1069.36        0.103256 
        1079.36        0.131215 
        1089.37        0.165982 
        1099.37        0.208922 
        1109.38        0.261742 
        1119.38        0.326462 
        1129.38        0.405441 
        1139.39        0.501426 
        1149.39        0.617084 
        1159.39        0.753885 
        1169.39        0.905322 
         1179.4         1.08415 
         1189.4          1.3232 
         1199.4         1.60518 
         1209.4         1.94907 
        1219.41         2.34173 
        1229.41         2.76174 
        1239.41         3.28611 
        1249.41         3.90638 
        1259.41         4.63171 
        1269.41         5.48729 
        1279.42         6.51183 
        1289.42         7.69194 
        1299.42         9.03352 
        1309.42         10.5851 
        1319.42         12.3498 
        1329.42         14.3833 
        1339.42         16.6878 
        1349.42         19.3148 
        1359.42         22.3207 
        1369.42         25.6865 
        1379.42         29.5079 
        1389.42         33.8419 
        1399.42         38.6944 
        1409.42         44.1234 
        1419.42          50.274 
        1429.42         57.1522 
        1439.42         64.7419 
        1454.42          77.821 
        1464.42          87.903 
        1474.42         99.0846 
        1489.42         117.741 
        1504.42         139.326 
        1514.42           155.9 
        1529.42         184.403 
        1544.42         216.635 
        1559.42         252.335 
        1570.19         280.566 
        1584.41         322.767 
        1599.41         373.576 
        1614.41          432.83 
        1629.41         503.629 
        1644.41         585.376 
        1659.41         671.622 
        1670.17         736.663 
         1684.4         830.232 
         1699.4         941.099 
         1714.4         1067.75 
         1729.4         1210.39 
         1744.4          1369.9 
        1759.39         1544.93 
         1771.7         1701.69 
        1784.39         1878.06 
        1799.39         2106.84 
        1819.38         2446.38 
        1834.77         2736.92 
        1845.54         2956.35 
         1856.3         3191.58 
        1867.07         3440.99 
        1882.44         3825.86 
        1894.73         4159.59 
        1906.98         4515.95 
        1919.37         4901.83 
        1931.76         5311.96 
        1944.14          5755.3 
        1956.53         6228.65 
        1968.59         6712.58 
        1980.65         7226.32 
        1992.71         7771.17 
        2004.77         8348.91 
        2015.84         8909.53 
        2031.63         9768.72 
        2047.42         10680.4 
        2059.38         11415.4 
        2074.69         12416.5 
        2089.99         13488.7 
         2105.3         14632.8 
        2116.25         15497.2 
         2127.2         16402.5 
        2138.15         17358.7 
         2149.1         18346.5 
        2165.47         19902.6 
        2181.85         21558.1 
        2198.22         23316.3 
         2214.5         25173.2 
        2226.91         26648.1 
        2239.33         28183.3 
        2251.62         29760.6 
        2263.91         31404.3 
        2276.21         33155.7 
         2288.5         34958.7 
        2300.79         36830.5 
        2312.95         38775.4 
        2324.96         40738.9 
        2336.98         42798.2 
           2349         44962.2 
        2359.67         46954.2 
         2370.4         49070.1 
        2381.12         51269.8 
        2391.85         53547.8 
        2402.58         55988.8 
        2422.67         60834.7 
        2436.06         64402.3 
        2449.45         68173.8 
        2460.79         71642.4 
        2479.19         77912.4 
        2497.59         85039.5 
        2510.01         90408.1 
        2522.93         96060.2 
        2535.86          102349 
        2548.78          109218 
        2559.23          115068 
        2575.22          125331 
         2591.2          136590 
        2607.18          149053 
        2623.17          162372 
        2636.62          174295 
        2647.14          184233 
        2657.67          194610 
        2668.19          204002 
        2678.72          213611 
        2689.24          223411 
        2710.29          243691 
        2731.34          264710 
        2748.67          282549 
        2763.55          298616 
        2778.42          315416 
        2793.29          332688 
        2808.16          350460 
        2821.27          366555 
        2837.91          387776 
        2854.55          409720 
        2871.19          434168 
        2887.83          459530 
        2904.47          485838 
        2921.11          513097 
        2937.75          541469 
        2952.98          568396 
        2983.46          622086 
        3013.93          678782 
        3037.39          724414 
        3051.42          752506 
        3065.45          784836 
        3079.48          818033 
        3107.53          887349 
        3121.33          922947 
        3135.59          960680 
        3149.86          999350 
        3164.12      1.04324e+6 
        3178.39      1.08829e+6 
        3199.78      1.15792e+6 
        3228.32      1.25477e+6 
         3243.3      1.30779e+6 
        3258.28      1.35307e+6 
        3278.26       1.4084e+6 
        3298.24      1.46474e+6 
        3329.66      1.55537e+6 
        3346.73      1.60556e+6 
         3363.8      1.65774e+6 
        3397.95      1.76405e+6 
        3441.16      1.90201e+6 
        3492.38      2.06976e+6 
         3543.6      2.24161e+6 
        3591.28      2.40532e+6 
        3635.88      2.56121e+6 
        3647.12      2.60134e+6 
        3658.96      2.64386e+6 
        3671.11      2.68748e+6 
        3682.58      2.72857e+6 
         3693.5       2.7676e+6 
        3703.57      2.80356e+6 
        3713.83      2.84013e+6 
        3724.38      2.87543e+6 
        3734.43      2.90552e+6 
        3744.62      2.93599e+6 
        3754.84      2.96644e+6 
        3765.07      2.99681e+6 
         3775.5      3.02768e+6 
        3786.22      3.05933e+6 
        3796.45       3.0894e+6 
        3807.84      3.12276e+6 
        3818.92      3.15529e+6 
        3830.45      3.19035e+6 
        3840.76      3.22151e+6 
        3851.98      3.25532e+6 
        3862.01      3.28541e+6 
        3872.59      3.31708e+6 
         3884.4      3.35236e+6 
        3894.46      3.38224e+6 
        3908.89      3.42487e+6 
        3923.89       3.4713e+6 
        3935.81       3.5091e+6 
        3946.58      3.54299e+6 
        3957.31      3.57648e+6 
        3967.38      3.60759e+6 
        3977.86      3.63997e+6 
        3988.87      3.67372e+6 
        4003.87      3.71911e+6 
        4018.86      3.76466e+6 
        4032.38      3.80601e+6 
        4043.86      3.84063e+6 
        4058.85      3.88524e+6 
        4073.85        3.929e+6 
           4084      3.95809e+6 
        4096.52      3.99318e+6 
        4106.79      4.02215e+6 
        4117.77       4.0551e+6 
        4128.84        4.088e+6 
        4143.83      4.13154e+6 
        4158.83      4.17408e+6 
        4173.82      4.21567e+6 
        4188.82      4.25629e+6 
        4203.81      4.29603e+6 
        4216.52      4.32968e+6 
        4228.81      4.36166e+6 
        4243.81       4.3998e+6 
         4258.8       4.4369e+6 
         4273.8      4.47294e+6 
        4288.79      4.50775e+6 
        4303.79      4.54105e+6 
        4314.07      4.56194e+6 
        4326.14      4.58484e+6 
        4336.17      4.60243e+6 
        4346.17      4.62332e+6 
        4357.43      4.64937e+6 
        4367.98      4.67215e+6 
        4378.77      4.69432e+6 
        4393.77       4.7236e+6 
        4408.76      4.74786e+6 
        4423.76       4.7685e+6 
        4438.75      4.78857e+6 
        4453.75      4.80818e+6 
        4468.74      4.82731e+6 
        4483.74        4.846e+6 
        4498.74      4.86529e+6 
        4513.73      4.89344e+6 
        4527.19      4.91769e+6 
        4538.73      4.93774e+6 
        4553.72      4.96287e+6 
        4568.72       4.9869e+6 
        4583.72       5.0099e+6 
        4596.53      5.02821e+6 
        4608.71      5.04307e+6 
         4623.7      5.06067e+6 
         4638.7      5.07763e+6 
         4653.7      5.09397e+6 
        4668.69      5.10971e+6 
        4683.69      5.12479e+6 
        4698.68       5.1388e+6 
        4713.68      5.15171e+6 
        4724.83      5.16095e+6 
        4738.67      5.17194e+6 
        4753.67      5.18325e+6 
        4768.67      5.19381e+6 
        4783.66      5.20342e+6 
        4798.66      5.21156e+6 
        4813.65      5.21756e+6 
        4828.65      5.21998e+6 
        4839.16        5.218e+6 
        4851.78      5.21008e+6 
        4861.84       5.2016e+6 
        4872.13      5.22365e+6 
        4882.71      5.24244e+6 
        4893.63      5.25724e+6 
        4903.92      5.26795e+6 
        4915.55      5.27762e+6 
        4928.62      5.28661e+6 
        4943.62      5.29537e+6 
        4958.61      5.30307e+6 
        4973.61      5.31001e+6 
        4988.61      5.31627e+6 
         5003.6      5.32189e+6 
         5018.6      5.32707e+6 
         5033.6      5.33191e+6 
        5048.59       5.3364e+6 
        5063.59      5.34058e+6 
        5078.58      5.34441e+6 
        5093.58      5.34746e+6 
        5108.57      5.35016e+6 
        5123.57      5.35265e+6 
        5138.57      5.35484e+6 
        5153.56      5.35682e+6 
        5168.56      5.35858e+6 
        5183.56       5.3599e+6 
        5198.55      5.36072e+6 
        5213.55      5.36132e+6 
        5228.54      5.36172e+6 
        5243.54      5.36194e+6 
        5258.53      5.36194e+6 
        5273.53      5.36176e+6 
        5288.53      5.36323e+6 
        5303.52      5.36449e+6 
        5318.52      5.36543e+6 
        5333.52      5.36606e+6 
        5348.51      5.36641e+6 
        5363.51      5.36659e+6 
         5378.5      5.36546e+6 
         5393.5       5.3632e+6 
        5408.49      5.36075e+6 
        5423.49      5.35814e+6 
        5438.49      5.35538e+6 
        5453.48      5.35243e+6 
        5468.48      5.34935e+6 
        5483.48      5.34727e+6 
        5498.47      5.34504e+6 
        5513.47      5.34259e+6 
        5528.46      5.33995e+6 
        5543.46      5.33716e+6 
        5558.45      5.33417e+6 
        5573.45      5.33097e+6 
        5588.45      5.32761e+6 
        5603.44      5.32406e+6 
        5618.44      5.32035e+6 
        5633.43      5.31645e+6 
        5648.43      5.31243e+6 
        5663.43      5.30822e+6 
        5673.98      5.30527e+6 
         5686.2      5.30163e+6 
        5698.42      5.29789e+6 
        5708.88      5.29459e+6 
        5723.41      5.28994e+6 
        5738.41      5.28498e+6 
         5753.4      5.27985e+6 
         5768.4      5.27382e+6 
        5783.39      5.26842e+6 
        5798.39      5.26286e+6 
        5813.39       5.2572e+6 
        5828.38      5.25139e+6 
        5843.38      5.24545e+6 
        5858.37      5.23942e+6 
        5873.37      5.23327e+6 
        5888.37      5.22698e+6 
        5903.36      5.22057e+6 
        5918.36      5.21407e+6 
        5933.35      5.20744e+6 
        5948.35      5.20069e+6 
        5963.35      5.19378e+6 
        5978.34      5.18674e+6 
        5993.34      5.17961e+6 
        6008.33      5.17238e+6 
        6023.33      5.16503e+6 
        6038.32      5.15755e+6 
        6053.32      5.15001e+6 
        6068.32      5.14235e+6 
        6083.31      5.13459e+6 
        6098.31       5.1267e+6 
        6113.31      5.11875e+6 
         6128.3      5.11068e+6 
         6143.3      5.10251e+6 
        6158.29      5.09425e+6 
        6173.29      5.08586e+6 
        6188.28      5.07738e+6 
        6203.28       5.0688e+6 
        6218.28       5.0601e+6 
        6233.27       5.0513e+6 
        6244.38      5.04474e+6 
        6256.04      5.03773e+6 
        6266.59      5.03135e+6 
        6278.26      5.02422e+6 
        6290.52      5.01662e+6 
        6302.31      5.00924e+6 
        6312.59       5.0027e+6 
        6323.25      4.99585e+6 
        6338.24      4.98605e+6 
        6353.24      4.97603e+6 
        6368.24      4.96573e+6 
        6383.23      4.95508e+6 
        6398.23      4.94405e+6 
        6413.22      4.93246e+6 
        6428.22      4.92014e+6 
        6443.22      4.90688e+6 
        6458.21      4.89221e+6 
        6473.21      4.87553e+6 
         6488.2      4.85587e+6 
         6503.2      4.83155e+6 
         6518.2      4.80007e+6 
        6532.67      4.75945e+6 
        6543.19      4.72191e+6 
        6554.43      4.67563e+6 
        6564.44      4.63925e+6 
        6574.47      4.67573e+6 
        6586.28      4.70793e+6 
        6598.17      4.73171e+6 
        6613.66      4.75025e+6 
         6634.3      4.76005e+6 
        6654.94      4.76005e+6 
        6675.58      4.75464e+6 
        6711.48      4.73862e+6 
        6741.75      4.72188e+6 
        6783.26       4.6964e+6 
        6824.78      4.66935e+6 
        6907.81      4.61311e+6 
        6990.84        4.555e+6 
         7038.6        4.521e+6 
        7073.87      4.49574e+6 
        7109.15       4.4703e+6 
        7179.69       4.4195e+6 
        7250.24       4.3682e+6 
        7320.78      4.31674e+6 
        7389.14      4.26691e+6 
        7406.65      4.25412e+6 
        7424.15      4.24134e+6 
        7459.17      4.21573e+6 
         7529.2      4.16446e+6 
        7599.23      4.11316e+6 
        7660.63      4.06814e+6 
        7677.88      4.05548e+6 
        7695.14      4.04298e+6 
        7729.65      4.01794e+6 
        7798.67      3.96796e+6 
        7867.69      3.91804e+6 
        7911.17      3.88665e+6 
        7936.71      3.86824e+6 
        7962.25       3.8499e+6 
        8013.32      3.81345e+6 
        8046.24      3.79002e+6 
         8064.4      3.77714e+6 
        8082.55      3.76426e+6 
        8118.86      3.73862e+6 
        8180.09      3.69558e+6 
        8191.47       3.6876e+6 
        8202.85      3.67962e+6 
        8216.85      3.66985e+6 
        8232.84      3.65873e+6 
        8264.83      3.63652e+6 
        8289.72      3.61927e+6 
        8328.82      3.59225e+6 
        8343.44       3.5822e+6 
        8367.92      3.56536e+6 
        8388.68      3.55116e+6 
        8408.65      3.53756e+6 
        8432.02      3.52166e+6 
        8467.25      3.49779e+6 
        8502.48      3.47397e+6 
        8516.58      3.46449e+6 
        8530.98      3.45478e+6 
        8545.38       3.4452e+6 
        8574.18        3.426e+6 
        8598.39      3.40995e+6 
         8628.6      3.38997e+6 
        8646.81      3.37797e+6 
        8665.01      3.36597e+6 
        8685.59      3.35246e+6 
        8701.43      3.34206e+6 
        8750.47      3.31004e+6 
        8767.92       3.2987e+6 
        8815.35      3.26801e+6 
        8862.78      3.23776e+6 
        8900.38      3.21391e+6 
        8957.65      3.17782e+6 
        9014.91        3.142e+6 
        9044.62      3.12353e+6 
        9072.17      3.10647e+6 
        9099.72      3.08949e+6 
        9154.81      3.05602e+6 
         9190.8       3.0343e+6 
         9209.9      3.02282e+6 
        9229.01      3.01136e+6 
        9267.22      2.98856e+6 
         9303.2      2.96721e+6 
        9343.64      2.94335e+6 
        9384.08      2.91964e+6 
        9464.96      2.87308e+6 
        9545.72      2.82719e+6 
        9561.21      2.81846e+6 
        9576.69      2.80975e+6 
        9607.66       2.7924e+6 
        9668.45      2.75859e+6 
        9729.24      2.72543e+6 
        9790.04       2.6926e+6 
        9850.83       2.6601e+6 
        9870.42       2.6497e+6 
        9911.62      2.62795e+6 
        9952.82      2.60634e+6 
        10021.1      2.57122e+6 
        10035.2      2.56399e+6 
        10049.4      2.55677e+6 
        10077.7      2.54241e+6 
        10134.2      2.51389e+6 
        10144.5      2.50877e+6 
        10190.8      2.48566e+6 
        10237.2      2.46274e+6 
        10329.9       2.4185e+6 
        10422.6      2.37497e+6 
        10515.3      2.33213e+6 
          10608      2.29001e+6 
        10700.7       2.2486e+6 
        10793.4      2.20789e+6 
        10834.1      2.19022e+6 
        10886.1      2.16787e+6 
        10938.1      2.14571e+6 
        10990.1      2.12384e+6 
          11042      2.10217e+6 
          11094      2.08071e+6 
          11146      2.05946e+6 
          11198      2.03843e+6 
          11239      2.02197e+6 
          11250       2.0176e+6 
        11260.9      2.01324e+6 
        11282.8      2.00488e+6 
        11326.6      1.98826e+6 
        11414.2      1.95541e+6 
        11501.8      1.92309e+6 
        11589.4      1.89129e+6 
          11677      1.86001e+6 
        11764.6      1.82924e+6 
        11852.2      1.79898e+6 
        11939.8      1.76923e+6 
        12027.4      1.73996e+6 
          12115      1.71121e+6 
        12202.6      1.68294e+6 
        12284.6      1.65691e+6 
        12366.6      1.63246e+6 
        12448.7      1.60836e+6 
        12530.7      1.58461e+6 
        12612.7       1.5612e+6 
        12694.7       1.5381e+6 
        12735.4      1.52677e+6 
        12776.7      1.51532e+6 
        12818.1      1.50393e+6 
        12900.8      1.48171e+6 
        12983.5      1.45979e+6 
        13066.2      1.43816e+6 
        13148.9      1.41684e+6 
        13231.6      1.39585e+6 
        13308.4      1.37665e+6 
        13385.1      1.35881e+6 
        13461.9       1.3412e+6 
        13538.7      1.32381e+6 
        13615.5      1.30665e+6 
        13692.3      1.28971e+6 
        13769.1      1.27299e+6 
        13845.9      1.25649e+6 
        13922.7      1.24021e+6 
        13999.5      1.22414e+6 
        14076.2      1.20828e+6 
          14153      1.19264e+6 
        14229.8      1.17721e+6 
        14281.2      1.16702e+6 
        14306.6      1.16199e+6 
        14332.1        1.157e+6 
          14383      1.14742e+6 
        14410.1      1.14235e+6 
        14427.1      1.13919e+6 
        14457.6      1.13353e+6 
        14505.2      1.12485e+6 
        14581.2       1.1111e+6 
        14597.2       1.1083e+6 
        14613.2      1.10553e+6 
        14645.2      1.10002e+6 
        14709.2      1.08906e+6 
        14773.2       1.0782e+6 
        14837.1      1.06744e+6 
        14901.1      1.05678e+6 
        14965.1      1.04623e+6 
        15029.1      1.03576e+6 
        15093.1      1.02541e+6 
        15157.1      1.01515e+6 
          15221      1.00498e+6 
          15285          994917 
          15349          984952 
          15413          975088 
        15471.6          966140 
        15482.4          964500 
        15493.1          962829 
        15514.7          959493 
        15557.9          952851 
        15644.2          939707 
        15730.5          926745 
        15816.8          913968 
