# Koester WD models
# teff = 5250 K (value for the effective temperature for the model. Temperatures are given in K)
# logg = 8 log(cm/s2) (value for Log(G) for the model.)
#
# column 1: WAVELENGTH (ANGSTROM), Wavelength in Angstrom
# column 2: FLUX (ERG/CM2/S/A), Flux in erg/cm2/s/A
         899.23     0.000755814 
        909.241      0.00107005 
        919.251      0.00150263 
        929.261      0.00208652 
        939.271      0.00284531 
         949.28       0.0039727 
        959.289      0.00549977 
        969.297      0.00763165 
        979.305       0.0103856 
        989.312       0.0139464 
        999.319       0.0185512 
        1009.33       0.0244958 
        1019.33       0.0321143 
        1029.34       0.0418074 
        1039.34        0.054288 
        1049.35       0.0699152 
        1059.36       0.0895967 
        1069.36        0.114155 
        1079.36        0.144835 
        1089.37        0.182721 
        1099.37        0.229613 
        1109.38        0.287002 
        1119.38        0.357727 
        1129.38        0.443621 
        1139.39        0.547382 
        1149.39        0.671443 
        1159.39        0.814615 
        1169.39        0.970165 
         1179.4          1.1528 
         1189.4         1.40158 
         1199.4         1.69777 
         1209.4         2.06114 
        1219.41         2.47706 
        1229.41         2.92304 
        1239.41         3.48271 
        1249.41         4.14156 
        1259.41         4.91116 
        1269.41         5.83086 
        1279.42         6.92872 
        1289.42         8.19085 
        1299.42         9.61949 
        1309.42         11.2761 
        1319.42         13.1526 
        1329.42         15.3203 
        1339.42         17.7681 
        1349.42          20.559 
        1359.42         23.7598 
        1369.42         27.3248 
        1379.42         31.3792 
        1389.42         35.9847 
        1399.42         41.1241 
        1409.42         46.8581 
        1419.42         53.3848 
        1429.42         60.6767 
        1439.42         68.6736 
        1454.42         82.4656 
        1464.42         93.1545 
        1474.42         104.999 
        1489.42         124.563 
        1504.42         147.185 
        1514.42         164.662 
        1529.42         194.866 
        1544.42         228.813 
        1559.42         265.944 
        1570.19         295.164 
        1584.41         339.173 
        1599.41          392.19 
        1614.41          454.35 
        1629.41           529.6 
        1644.41         619.089 
        1659.41         717.433 
        1670.17         794.543 
         1684.4         907.037 
         1699.4         1042.61 
         1714.4         1192.94 
         1729.4         1359.64 
         1744.4         1541.85 
        1759.39            1739 
         1771.7         1915.79 
        1784.39         2116.55 
        1799.39         2376.49 
        1819.38         2760.55 
        1834.77         3088.47 
        1845.54         3335.62 
         1856.3         3601.84 
        1867.07         3883.54 
        1882.44         4318.68 
        1894.73         4697.12 
        1906.98         5101.29 
        1919.37         5539.19 
        1931.76         6003.24 
        1944.14         6507.84 
        1956.53         7045.74 
        1968.59          7593.7 
        1980.65         8175.02 
        1992.71         8792.28 
        2004.77         9447.37 
        2015.84         10083.3 
        2031.63         11063.5 
        2047.42         12096.2 
        2059.38         12929.5 
        2074.69         14067.6 
        2089.99         15292.7 
         2105.3         16603.3 
        2116.25         17595.1 
         2127.2         18636.2 
        2138.15         19745.9 
         2149.1         20883.9 
        2165.47         22679.2 
        2181.85         24591.9 
        2198.13         26622.3 
         2214.7         28828.3 
        2231.26         31152.4 
        2247.83         33617.9 
        2263.91         36169.5 
           2280           39022 
        2296.08           42004 
        2311.19         44989.2 
        2326.75         48120.7 
        2342.32         51456.8 
        2353.41         53964.7 
         2371.3         58275.6 
        2389.19         62941.8 
        2404.88         67446.2 
        2422.47         72945.9 
        2440.06         79130.4 
        2451.59         83419.7 
        2465.39         89203.6 
        2475.96         93987.3 
        2492.99          102439 
        2510.01          111786 
        2527.04          121598 
        2544.07          132103 
        2555.44          139520 
        2566.81          147864 
        2578.19          157003 
        2593.35          170152 
        2608.52          184454 
        2623.68          199351 
        2638.85          215260 
        2650.36          227968 
        2661.32          239863 
        2672.28          250678 
         2686.9          265518 
        2701.52          280813 
        2716.13          296568 
        2730.75          312777 
        2745.36          329562 
        2756.11          342220 
        2766.85          355776 
         2777.6          369640 
        2799.09          398373 
        2820.58          428428 
        2842.07          459844 
        2854.55          478757 
        2867.02          499702 
         2879.5          521225 
        2904.45          565955 
         2929.4          613066 
        2952.98          659876 
        2976.57          706528 
        2996.07          746581 
        3023.74          805947 
        3037.58          836738 
        3051.42          868207 
        3065.26          904361 
         3079.1          941359 
        3099.85          998602 
        3127.53      1.07817e+6 
        3138.69      1.11134e+6 
        3149.86       1.1451e+6 
        3161.02      1.18286e+6 
        3172.18      1.22141e+6 
        3194.51        1.301e+6 
        3216.84      1.38346e+6 
        3230.04      1.43353e+6 
        3243.73      1.48651e+6 
        3257.42      1.53118e+6 
        3275.68      1.58533e+6 
        3293.94      1.64025e+6 
        3314.17        1.702e+6 
        3330.45       1.7523e+6 
        3346.73      1.80314e+6 
        3379.29      1.90822e+6 
        3411.84       2.0153e+6 
        3443.63      2.12166e+6 
        3455.94      2.16283e+6 
        3468.26      2.20415e+6 
        3492.89       2.2874e+6 
        3540.72      2.45109e+6 
        3552.25      2.49073e+6 
        3563.77      2.53045e+6 
        3582.37      2.59474e+6 
        3597.07      2.64567e+6 
        3618.02      2.71829e+6 
        3635.88      2.78046e+6 
        3647.12      2.82008e+6 
        3658.96       2.8619e+6 
        3671.11      2.90469e+6 
        3682.58      2.94498e+6 
         3693.5      2.98316e+6 
        3703.57      3.01823e+6 
        3713.83      3.05381e+6 
        3724.38      3.08819e+6 
        3734.43      3.11757e+6 
        3744.62      3.14737e+6 
        3754.84      3.17706e+6 
        3765.07      3.20669e+6 
         3775.5      3.23672e+6 
        3786.22      3.26754e+6 
        3796.45      3.29676e+6 
        3807.84      3.32915e+6 
        3818.92      3.36062e+6 
        3830.45      3.39433e+6 
        3840.76      3.42427e+6 
        3851.98      3.45666e+6 
        3862.01      3.48541e+6 
        3872.59      3.51544e+6 
         3884.4      3.54837e+6 
        3894.46      3.57661e+6 
        3908.89      3.61714e+6 
        3923.89      3.66049e+6 
        3935.81      3.69552e+6 
        3946.58      3.72668e+6 
        3957.31      3.75687e+6 
        3967.38      3.78223e+6 
        3977.86      3.81418e+6 
        3988.87      3.84653e+6 
        4003.87      3.88835e+6 
        4018.86      3.92979e+6 
        4032.38      3.96711e+6 
        4043.86      3.99827e+6 
        4058.85      4.03817e+6 
        4073.85      4.07678e+6 
           4084      4.10129e+6 
        4096.52      4.12243e+6 
        4106.79      4.14778e+6 
        4117.77      4.18686e+6 
        4128.84      4.21781e+6 
        4143.83      4.25673e+6 
        4158.83      4.29421e+6 
        4173.82      4.33059e+6 
        4188.82      4.36606e+6 
        4203.81      4.40062e+6 
        4216.52      4.42974e+6 
        4228.81      4.45735e+6 
        4243.81      4.49018e+6 
         4258.8      4.52207e+6 
         4273.8      4.55295e+6 
        4288.79      4.58258e+6 
        4303.79      4.61032e+6 
        4314.07       4.6265e+6 
        4326.14      4.63718e+6 
        4336.17      4.61189e+6 
        4346.17      4.63982e+6 
        4357.43       4.6958e+6 
        4367.98      4.72128e+6 
        4378.77      4.74186e+6 
        4393.77      4.76752e+6 
        4408.76      4.78892e+6 
        4423.76      4.80752e+6 
        4438.75      4.82555e+6 
        4453.75      4.84314e+6 
        4468.74      4.86026e+6 
        4483.74      4.87701e+6 
        4498.74      4.89416e+6 
        4513.73      4.91728e+6 
        4527.19      4.93726e+6 
        4538.73      4.95376e+6 
        4553.72      4.97443e+6 
        4568.72      4.99425e+6 
        4583.72       5.0132e+6 
        4596.53       5.0284e+6 
        4608.71        5.041e+6 
         4623.7      5.05595e+6 
         4638.7       5.0704e+6 
         4653.7      5.08429e+6 
        4668.69      5.09767e+6 
        4683.69      5.11055e+6 
        4698.68      5.12262e+6 
        4713.68      5.13383e+6 
        4724.83      5.14188e+6 
        4738.67      5.15152e+6 
        4753.67      5.16142e+6 
        4768.67      5.17075e+6 
        4783.66      5.17932e+6 
        4798.66      5.18661e+6 
        4813.65      5.19167e+6 
        4828.65      5.19095e+6 
        4839.16      5.17929e+6 
        4851.78      5.10732e+6 
        4861.84      4.90415e+6 
        4872.13      5.13295e+6 
        4882.71      5.19918e+6 
        4893.63      5.22305e+6 
        4903.92      5.23477e+6 
        4915.55      5.24366e+6 
        4928.62      5.25127e+6 
        4943.62      5.25849e+6 
        4958.61      5.26484e+6 
        4973.61      5.27052e+6 
        4988.61      5.27571e+6 
         5003.6      5.28039e+6 
         5018.6      5.28472e+6 
         5033.6      5.28875e+6 
        5048.59      5.29245e+6 
        5063.59      5.29591e+6 
        5078.58      5.29908e+6 
        5093.58      5.30163e+6 
        5108.57      5.30392e+6 
        5123.57      5.30596e+6 
        5138.57      5.30778e+6 
        5153.56      5.30939e+6 
        5168.56      5.31074e+6 
        5183.56      5.31177e+6 
        5198.55       5.3124e+6 
        5213.55      5.31284e+6 
        5228.54      5.31306e+6 
        5243.54      5.31309e+6 
        5258.53      5.31294e+6 
        5273.53      5.31259e+6 
        5288.53      5.31328e+6 
        5303.52      5.31375e+6 
        5318.52      5.31397e+6 
        5333.52      5.31394e+6 
        5348.51      5.31366e+6 
        5363.51      5.31319e+6 
         5378.5       5.3118e+6 
         5393.5      5.30964e+6 
        5408.49      5.30728e+6 
        5423.49      5.30477e+6 
        5438.49       5.3021e+6 
        5453.48      5.29927e+6 
        5468.48      5.29625e+6 
        5483.48       5.2939e+6 
        5498.47      5.29135e+6 
        5513.47      5.28865e+6 
        5528.46      5.28576e+6 
        5543.46      5.28271e+6 
        5558.45      5.27948e+6 
        5573.45      5.27608e+6 
        5588.45      5.27253e+6 
        5603.44       5.2688e+6 
        5618.44       5.2649e+6 
        5633.43      5.26088e+6 
        5648.43       5.2567e+6 
        5663.43      5.25237e+6 
        5673.98      5.24929e+6 
         5686.2      5.24555e+6 
        5698.42      5.24172e+6 
        5708.88      5.23839e+6 
        5723.41      5.23361e+6 
        5738.41      5.22855e+6 
         5753.4       5.2234e+6 
         5768.4      5.21771e+6 
        5783.39      5.21225e+6 
        5798.39      5.20669e+6 
        5813.39      5.20097e+6 
        5828.38      5.19516e+6 
        5843.38      5.18922e+6 
        5858.37      5.18316e+6 
        5873.37      5.17697e+6 
        5888.37      5.17068e+6 
        5903.36      5.16431e+6 
        5918.36       5.1578e+6 
        5933.35      5.15118e+6 
        5948.35      5.14445e+6 
        5963.35       5.1376e+6 
        5978.34      5.13063e+6 
        5993.34      5.12356e+6 
        6008.33       5.1164e+6 
        6023.33      5.10911e+6 
        6038.32      5.10176e+6 
        6053.32      5.09428e+6 
        6068.32      5.08671e+6 
        6083.31      5.07904e+6 
        6098.31      5.07132e+6 
        6113.31      5.06346e+6 
         6128.3      5.05555e+6 
         6143.3      5.04753e+6 
        6158.29      5.03943e+6 
        6173.29       5.0312e+6 
        6188.28      5.02294e+6 
        6203.28      5.01455e+6 
        6218.28      5.00607e+6 
        6233.27      4.99752e+6 
        6244.38      4.99114e+6 
        6256.04      4.98436e+6 
        6266.59       4.9782e+6 
        6278.26      4.97132e+6 
        6290.52      4.96403e+6 
        6302.31      4.95693e+6 
        6312.59      4.95071e+6 
        6323.25      4.94418e+6 
        6338.24      4.93491e+6 
        6353.24      4.92545e+6 
        6368.24      4.91584e+6 
        6383.23      4.90604e+6 
        6398.23      4.89595e+6 
        6413.22      4.88552e+6 
        6428.22      4.87462e+6 
        6443.22      4.86306e+6 
        6458.21      4.85043e+6 
        6473.21       4.8361e+6 
         6488.2      4.81876e+6 
         6503.2      4.79561e+6 
         6518.2      4.75951e+6 
        6532.67      4.69316e+6 
        6543.19      4.59229e+6 
        6554.43      4.34416e+6 
        6564.44      4.05853e+6 
        6574.47      4.43002e+6 
        6586.28      4.61095e+6 
        6598.17      4.68012e+6 
        6613.66      4.71333e+6 
        6623.98      4.72122e+6 
         6634.3      4.72376e+6 
        6654.94      4.72084e+6 
        6675.58      4.71273e+6 
        6696.23      4.70218e+6 
        6711.48      4.69354e+6 
        6741.98      4.67507e+6 
        6781.19      4.64993e+6 
        6802.98      4.63555e+6 
        6824.78      4.62094e+6 
        6868.37      4.59153e+6 
        6955.56      4.53143e+6 
        6976.35      4.51689e+6 
        7042.75      4.47011e+6 
        7109.15       4.4228e+6 
        7175.54      4.37561e+6 
        7241.94      4.32805e+6 
        7308.33      4.28023e+6 
        7355.95       4.2458e+6 
        7374.73      4.23235e+6 
        7393.51      4.21872e+6 
        7431.08      4.19173e+6 
        7506.22      4.13757e+6 
        7581.35      4.08335e+6 
         7635.1      4.04455e+6 
        7656.49      4.02909e+6 
        7677.88      4.01364e+6 
        7720.67      3.98307e+6 
        7806.23        3.922e+6 
        7821.36      3.91122e+6 
         7891.8      3.86108e+6 
        7962.25      3.81107e+6 
        7982.84      3.79658e+6 
        8032.69      3.76159e+6 
        8082.55      3.72668e+6 
        8161.68      3.67183e+6 
        8182.26      3.65757e+6 
        8200.85      3.64472e+6 
        8216.85      3.63375e+6 
        8232.84      3.62276e+6 
        8264.83      3.60089e+6 
        8289.72       3.5839e+6 
        8328.82      3.55726e+6 
        8343.44      3.54733e+6 
        8367.92      3.53074e+6 
        8388.68      3.51676e+6 
        8408.65      3.50335e+6 
        8432.02      3.48767e+6 
        8467.25      3.46414e+6 
        8502.48      3.44067e+6 
        8516.58      3.43131e+6 
        8530.98      3.42173e+6 
        8545.38      3.41227e+6 
        8574.18      3.39339e+6 
        8598.39      3.37756e+6 
         8628.6      3.35786e+6 
        8646.81      3.34602e+6 
        8665.01       3.3342e+6 
        8685.59      3.32088e+6 
        8701.43      3.31064e+6 
        8750.47      3.27907e+6 
        8767.92      3.26788e+6 
        8815.35       3.2376e+6 
        8862.78      3.20779e+6 
        8900.38      3.18429e+6 
        8957.65      3.14869e+6 
        9014.91      3.11336e+6 
        9044.62      3.09515e+6 
        9072.17      3.07833e+6 
        9099.72      3.06158e+6 
        9154.81      3.02857e+6 
         9190.8      3.00716e+6 
         9209.9      2.99583e+6 
        9229.01      2.98452e+6 
        9267.22      2.96204e+6 
         9303.2      2.94098e+6 
        9343.64      2.91744e+6 
        9384.08      2.89405e+6 
        9464.96      2.84814e+6 
        9545.72      2.80282e+6 
        9561.21      2.79424e+6 
        9576.69      2.78565e+6 
        9607.66      2.76854e+6 
        9668.45      2.73519e+6 
        9729.24      2.70248e+6 
        9790.04      2.67009e+6 
        9850.83      2.63803e+6 
        9870.42      2.62776e+6 
        9911.62      2.60629e+6 
        9952.82      2.58497e+6 
        10021.1      2.55026e+6 
        10035.2      2.54309e+6 
        10049.4      2.53589e+6 
        10077.7      2.52183e+6 
        10134.2      2.49374e+6 
        10144.5      2.48868e+6 
        10190.8      2.46588e+6 
        10237.2      2.44327e+6 
        10329.9      2.39965e+6 
        10422.6      2.35671e+6 
        10515.3      2.31446e+6 
          10608       2.2729e+6 
        10700.7      2.23202e+6 
        10793.4      2.19182e+6 
        10834.1      2.17436e+6 
        10886.1      2.15219e+6 
        10938.1      2.12984e+6 
        10990.1      2.10871e+6 
          11042       2.0874e+6 
          11094      2.06622e+6 
          11146      2.04523e+6 
          11198      2.02445e+6 
          11239       2.0082e+6 
          11250      2.00388e+6 
        11260.9      1.99958e+6 
        11282.8      1.99133e+6 
        11326.6      1.97494e+6 
        11414.2      1.94254e+6 
        11501.8      1.91066e+6 
        11589.4      1.87928e+6 
          11677      1.84841e+6 
        11764.6      1.81803e+6 
        11852.2      1.78816e+6 
        11939.8      1.75877e+6 
        12027.4      1.72987e+6 
          12115      1.70146e+6 
        12202.6      1.67353e+6 
        12284.6      1.64781e+6 
        12366.6       1.6237e+6 
        12448.7      1.59995e+6 
        12530.7      1.57653e+6 
        12612.7      1.55342e+6 
        12694.7      1.53056e+6 
        12735.4      1.51922e+6 
        12776.7      1.50738e+6 
        12818.1       1.4947e+6 
        12900.8      1.47474e+6 
        12983.5       1.4533e+6 
        13066.2      1.43197e+6 
        13148.9      1.41092e+6 
        13231.6      1.39019e+6 
        13308.4      1.37121e+6 
        13385.1      1.35365e+6 
        13461.9       1.3363e+6 
        13538.7      1.31917e+6 
        13615.5      1.30226e+6 
        13692.3      1.28557e+6 
        13769.1      1.26909e+6 
        13845.9      1.25282e+6 
        13922.7      1.23676e+6 
        13999.5      1.22091e+6 
        14076.2      1.20527e+6 
          14153      1.18983e+6 
        14229.8       1.1746e+6 
        14281.2      1.16453e+6 
        14306.6      1.15957e+6 
        14332.1      1.15464e+6 
          14383      1.14521e+6 
        14410.1      1.14022e+6 
        14427.1      1.13711e+6 
        14457.6      1.13153e+6 
        14505.2      1.12298e+6 
        14581.2      1.10943e+6 
        14597.2      1.10668e+6 
        14613.2      1.10396e+6 
        14645.2      1.09854e+6 
        14709.2      1.08777e+6 
        14773.2       1.0771e+6 
        14837.1      1.06652e+6 
        14901.1      1.05603e+6 
        14965.1      1.04563e+6 
        15029.1      1.03534e+6 
        15093.1      1.02514e+6 
        15157.1      1.01503e+6 
          15221      1.00502e+6 
          15285          995103 
          15349          985279 
          15413          975549 
        15471.6          966725 
        15482.4          965107 
        15493.1          963454 
        15514.7          960156 
