# Koester WD models
# teff = 5750 K (value for the effective temperature for the model. Temperatures are given in K)
# logg = 8.25 log(cm/s2) (value for Log(G) for the model.)
#
# column 1: WAVELENGTH (ANGSTROM), Wavelength in Angstrom
# column 2: FLUX (ERG/CM2/S/A), Flux in erg/cm2/s/A
         899.23       0.0125135 
        909.241       0.0171779 
        919.251       0.0234067 
        929.261       0.0317028 
        939.271       0.0427326 
         949.28       0.0567406 
        959.289       0.0817556 
        969.297        0.113396 
        979.305        0.155375 
        989.312         0.20664 
        999.319        0.270252 
        1009.33         0.34943 
        1019.33         0.44381 
        1029.34        0.557033 
        1039.34        0.721812 
        1049.35        0.905913 
        1059.36         1.13204 
        1069.36         1.40461 
        1079.36         1.73926 
        1089.37         2.13762 
        1099.37         2.62233 
        1109.38         3.19525 
        1119.38         3.89963 
        1129.38           4.728 
        1139.39           5.691 
        1149.39         6.78348 
        1159.39         7.90993 
        1169.39         8.95985 
         1179.4         10.1075 
         1189.4         11.9255 
         1199.4         14.1329 
         1209.4         16.6957 
        1219.41         19.6916 
        1229.41         23.2994 
        1239.41         27.4865 
        1249.41         32.2434 
        1259.41         37.7132 
        1269.41         44.4604 
        1279.42         52.5651 
        1289.42         61.5689 
        1299.42         71.4587 
        1309.42         82.7772 
        1319.42         95.2207 
        1329.42         109.591 
        1339.42          125.33 
        1349.42          143.03 
        1359.42         163.317 
        1369.42         185.184 
        1379.42         209.696 
        1389.42         237.407 
        1399.42         267.918 
        1409.42         301.113 
        1419.42         338.488 
        1429.42         379.687 
        1439.42         423.977 
        1454.42         500.006 
        1464.42         558.305 
        1474.42         621.127 
        1489.42         720.889 
        1504.42         835.117 
        1514.42         925.677 
        1529.42         1080.95 
        1544.42         1247.23 
        1559.42         1413.58 
        1570.19         1542.31 
        1584.41         1737.91 
        1599.41         1973.02 
        1614.41         2258.53 
        1629.41         2625.74 
        1644.41         3091.06 
        1659.41         3625.34 
        1670.17         4046.15 
         1684.4         4648.17 
         1699.4         5370.55 
         1714.4         6139.93 
         1729.4         6967.96 
         1744.4         7845.22 
        1759.39         8753.29 
         1771.7         9553.36 
        1784.39           10470 
        1799.39         11647.4 
        1819.38         13351.2 
        1834.77         14786.3 
        1845.54           15856 
         1856.3         17019.1 
        1867.07         18231.9 
        1882.44         20098.6 
        1894.73         21716.8 
        1906.98         23439.1 
        1919.37         25299.2 
        1931.76         27245.4 
        1944.14         29409.5 
        1956.53         31698.4 
        1968.59         33972.9 
        1980.65         36374.9 
        1992.71         38918.7 
        2004.77         41619.5 
        2015.84         44236.8 
         2027.8         47360.5 
        2047.42         52562.6 
        2067.03         58182.9 
        2086.65         64447.6 
        2106.26         71273.3 
        2126.24         78871.6 
        2146.22         87437.4 
        2165.47         96077.1 
        2184.73          105352 
        2203.98          115370 
         2214.7          121291 
        2229.89          129853 
        2247.27          140249 
        2259.75          148065 
        2272.24          157578 
        2288.88          170651 
        2305.53          184777 
        2320.74          197977 
        2335.95          211273 
        2355.17          229634 
        2369.54          244489 
        2383.92          260364 
         2398.3          277641 
        2409.27          291985 
        2420.25          307241 
        2431.23          324256 
         2447.7          350030 
        2460.79          373202 
        2474.59          400101 
        2492.99          438632 
        2510.01          477466 
        2527.04          516255 
        2543.14          554843 
        2555.21          585078 
        2567.28          620207 
        2579.35          658889 
        2591.43          699573 
        2607.52          757865 
        2631.66          849260 
        2647.76          914342 
        2662.62          973096 
        2677.49      1.02497e+6 
        2707.21      1.13226e+6 
        2727.03       1.2064e+6 
        2737.59      1.24672e+6 
        2756.11      1.31885e+6 
        2774.63      1.39622e+6 
        2793.15      1.47576e+6 
        2805.84      1.53159e+6 
        2830.19       1.6412e+6 
        2842.37       1.6972e+6 
        2854.55      1.75384e+6 
        2866.72      1.81566e+6 
         2878.9      1.87853e+6 
        2891.07      1.94248e+6 
        2902.22      2.00195e+6 
         2927.6      2.14077e+6 
        2952.98      2.28409e+6 
        3003.74      2.56073e+6 
        3027.58      2.69511e+6 
         3039.5      2.76322e+6 
        3051.42      2.83195e+6 
        3063.34      2.90936e+6 
        3075.26       2.9876e+6 
        3087.18      3.06663e+6 
         3099.1      3.14643e+6 
        3122.93      3.30832e+6 
        3149.86       3.4943e+6 
        3176.78      3.69662e+6 
         3203.7      3.90255e+6 
           3226      4.07562e+6 
        3237.15      4.16289e+6 
        3248.29       4.2507e+6 
        3259.44      4.31265e+6 
        3270.59      4.37467e+6 
        3281.74      4.43665e+6 
        3292.89       4.4987e+6 
        3304.03      4.56071e+6 
        3315.18      4.62273e+6 
        3326.33      4.68471e+6 
        3337.48      4.74663e+6 
        3351.24      4.82285e+6 
        3368.79      4.91958e+6 
         3398.2      5.08127e+6 
        3445.17      5.33769e+6 
        3492.13      5.58157e+6 
        3534.59      5.79903e+6 
        3549.99      5.87638e+6 
        3570.64      5.97785e+6 
        3591.28      6.07857e+6 
        3626.19      6.24429e+6 
        3638.96      6.30433e+6 
        3651.32      6.36223e+6 
         3663.4      6.41812e+6 
        3673.95      6.46634e+6 
         3684.5      6.51387e+6 
         3695.3      6.56191e+6 
        3705.37      6.60611e+6 
        3715.64      6.65059e+6 
        3725.75      6.69059e+6 
        3735.82      6.72716e+6 
        3746.45      6.76533e+6 
        3757.47      6.80447e+6 
        3768.55      6.84327e+6 
        3778.93      6.87933e+6 
        3790.45      6.91873e+6 
        3800.56      6.95269e+6 
        3811.59      6.98967e+6 
        3822.57       7.0263e+6 
        3832.73      7.05906e+6 
        3842.75       7.0935e+6 
        3853.31      7.12853e+6 
        3863.68      7.16205e+6 
        3873.85      7.19381e+6 
         3884.4      7.22136e+6 
        3894.46      7.25378e+6 
        3908.89      7.30339e+6 
        3923.89      7.35104e+6 
        3935.81      7.38852e+6 
        3946.58       7.4206e+6 
        3957.31      7.44727e+6 
        3967.38      7.43458e+6 
        3977.86      7.49826e+6 
        3988.87      7.54532e+6 
        4003.87      7.59106e+6 
        4018.86      7.63369e+6 
        4032.38      7.67111e+6 
        4043.86      7.70174e+6 
        4058.85      7.73985e+6 
        4073.85      7.77381e+6 
           4084      7.78886e+6 
        4095.68      7.74437e+6 
        4105.79      7.72461e+6 
        4116.23      7.85879e+6 
        4128.84      7.90654e+6 
        4143.83      7.94612e+6 
        4158.83      7.98128e+6 
        4173.82      8.01433e+6 
        4188.82      8.04578e+6 
        4203.81      8.07587e+6 
        4216.52      8.10085e+6 
        4228.81      8.12419e+6 
        4243.81      8.15143e+6 
         4258.8      8.17722e+6 
         4273.8      8.20132e+6 
        4288.79      8.22299e+6 
        4303.79      8.23986e+6 
        4314.07      8.24335e+6 
        4326.14      8.21127e+6 
        4336.17       7.9444e+6 
        4346.17      8.04345e+6 
        4357.43      8.27093e+6 
        4367.98      8.31564e+6 
        4378.77      8.33886e+6 
        4393.77      8.36138e+6 
        4408.76      8.37743e+6 
        4423.76      8.38991e+6 
        4438.75      8.40128e+6 
        4453.75      8.41187e+6 
        4468.74      8.42173e+6 
        4483.74        8.431e+6 
        4498.74      8.44064e+6 
        4513.73      8.45519e+6 
        4527.19      8.46728e+6 
        4538.73      8.47699e+6 
        4553.72      8.48871e+6 
        4568.72      8.49945e+6 
        4583.72      8.50922e+6 
        4596.53      8.51657e+6 
        4608.71      8.52195e+6 
         4623.7      8.52788e+6 
         4638.7      8.53316e+6 
         4653.7      8.53778e+6 
        4668.69      8.54177e+6 
        4683.69       8.5451e+6 
        4698.68      8.54752e+6 
        4713.68      8.54896e+6 
        4724.83      8.54962e+6 
        4738.67      8.54991e+6 
        4753.67       8.5494e+6 
        4768.67      8.54787e+6 
        4783.66      8.54482e+6 
        4798.66      8.53904e+6 
        4813.65      8.52766e+6 
        4828.65      8.50018e+6 
        4839.16      8.44689e+6 
        4849.39      8.26751e+6 
        4859.47      7.22309e+6 
        4869.59      8.08988e+6 
        4880.32      8.41036e+6 
        4893.63      8.48868e+6 
        4908.63      8.51089e+6 
         4921.7      8.51642e+6 
        4933.62      8.51733e+6 
        4948.62      8.51576e+6 
        4963.61      8.51255e+6 
        4978.61      8.50831e+6 
        4993.61      8.50322e+6 
         5008.6      8.49751e+6 
         5023.6      8.49129e+6 
        5038.59      8.48466e+6 
        5053.59      8.47762e+6 
        5068.59      8.47027e+6 
        5083.58      8.46248e+6 
        5098.58      8.45412e+6 
        5113.57      8.44551e+6 
        5128.57      8.43659e+6 
        5143.57      8.42742e+6 
        5158.56      8.41799e+6 
        5173.56      8.40828e+6 
        5188.55       8.3982e+6 
        5203.55      8.38783e+6 
        5218.55      8.37725e+6 
        5233.54      8.36641e+6 
        5248.54      8.35538e+6 
        5263.53       8.3441e+6 
        5278.53      8.33289e+6 
        5293.52      8.32211e+6 
        5308.52      8.31105e+6 
        5323.52      8.29974e+6 
        5338.51      8.28815e+6 
        5353.51      8.27634e+6 
        5368.51      8.26443e+6 
         5383.5      8.25139e+6 
         5398.5      8.23804e+6 
        5413.49      8.22447e+6 
        5428.49      8.21074e+6 
        5443.48      8.19686e+6 
        5458.48      8.18281e+6 
        5473.48      8.16877e+6 
        5488.47      8.15495e+6 
        5503.47      8.14093e+6 
        5518.47      8.12677e+6 
        5533.46      8.11244e+6 
        5548.46      8.09796e+6 
        5563.45      8.08329e+6 
        5578.45      8.06846e+6 
        5593.44      8.05347e+6 
        5608.44      8.03833e+6 
        5623.44      8.02306e+6 
        5638.43      8.00764e+6 
        5653.43      7.99209e+6 
        5668.43      7.97676e+6 
        5682.86      7.96152e+6 
        5693.42      7.95027e+6 
        5704.77      7.93814e+6 
        5715.23      7.92687e+6 
        5728.41      7.91264e+6 
         5743.4      7.89627e+6 
         5758.4      7.87984e+6 
         5773.4      7.86243e+6 
        5788.39      7.84572e+6 
        5803.39      7.82891e+6 
        5818.39      7.81198e+6 
        5833.38      7.79498e+6 
        5848.38      7.77786e+6 
        5863.37      7.76064e+6 
        5878.37      7.74333e+6 
        5893.36      7.72593e+6 
        5908.36      7.70843e+6 
        5923.36      7.69087e+6 
        5938.35      7.67318e+6 
        5953.35      7.65543e+6 
        5968.34      7.63756e+6 
        5983.34      7.61962e+6 
        5998.34      7.60159e+6 
        6013.33      7.58346e+6 
        6028.33      7.56527e+6 
        6043.32      7.54699e+6 
        6058.32      7.52864e+6 
        6073.32      7.51023e+6 
        6088.31      7.49172e+6 
        6103.31      7.47319e+6 
         6118.3      7.45456e+6 
         6133.3      7.43587e+6 
         6148.3      7.41711e+6 
        6163.29      7.39826e+6 
        6178.29      7.37935e+6 
        6193.28      7.36037e+6 
        6208.28      7.34134e+6 
        6223.28      7.32224e+6 
        6238.27      7.30301e+6 
        6252.16      7.28516e+6 
        6262.16      7.27228e+6 
        6273.26       7.2579e+6 
        6284.63      7.24313e+6 
        6295.99      7.22827e+6 
        6306.09      7.21504e+6 
        6316.22      7.20166e+6 
        6328.25       7.1857e+6 
        6343.24      7.16575e+6 
        6358.24      7.14543e+6 
        6373.23      7.12485e+6 
        6388.23      7.10386e+6 
        6403.23      7.08234e+6 
        6418.22       7.0601e+6 
        6433.22      7.03679e+6 
        6448.22      7.01185e+6 
        6463.21      6.98433e+6 
        6478.21      6.95241e+6 
         6493.2      6.91241e+6 
         6508.2      6.85593e+6 
        6523.19       6.7608e+6 
        6537.09      6.57699e+6 
        6548.06      6.23355e+6 
        6558.19      5.37778e+6 
        6568.58      5.52537e+6 
        6578.99      6.26572e+6 
        6590.04      6.54312e+6 
        6603.34      6.67017e+6 
        6613.66      6.71116e+6 
        6623.98      6.73014e+6 
         6634.3       6.7374e+6 
        6654.94      6.73426e+6 
        6675.58      6.71984e+6 
        6711.48      6.68402e+6 
        6741.75      6.64946e+6 
        6783.26       6.5992e+6 
        6824.78      6.54742e+6 
        6907.81      6.44268e+6 
        6990.84        6.337e+6 
         7038.6      6.27612e+6 
        7073.87      6.23116e+6 
        7109.15      6.18627e+6 
        7179.69      6.09749e+6 
        7250.24      6.00905e+6 
        7320.78      5.92099e+6 
        7389.14      5.83651e+6 
        7406.65      5.81503e+6 
        7424.15       5.7936e+6 
        7459.17      5.75084e+6 
         7529.2      5.66583e+6 
        7599.23      5.58145e+6 
        7660.63      5.50806e+6 
        7677.88      5.48755e+6 
        7695.14      5.46722e+6 
        7729.65      5.42676e+6 
        7798.67      5.34636e+6 
        7867.69      5.26669e+6 
        7911.17       5.2169e+6 
        7936.71      5.18781e+6 
        7962.25      5.15881e+6 
        8013.32      5.10151e+6 
        8046.24      5.06481e+6 
         8064.4      5.04464e+6 
        8082.55      5.02454e+6 
        8118.86      4.98467e+6 
        8180.09      4.91791e+6 
        8191.47      4.90557e+6 
        8202.85      4.89325e+6 
        8216.85       4.8782e+6 
        8232.84      4.86105e+6 
        8264.83       4.8269e+6 
        8289.72      4.80045e+6 
        8328.82       4.7591e+6 
        8343.44      4.74371e+6 
        8367.92      4.71804e+6 
        8388.68      4.69646e+6 
        8408.65      4.67576e+6 
        8432.02      4.65163e+6 
        8467.25      4.61547e+6 
        8502.48      4.57953e+6 
        8516.58      4.56521e+6 
        8530.98       4.5506e+6 
        8545.38      4.53615e+6 
        8574.18      4.50737e+6 
        8598.39      4.48327e+6 
         8628.6      4.45336e+6 
        8646.81      4.43539e+6 
        8665.01      4.41749e+6 
        8685.59      4.39738e+6 
        8701.43      4.38192e+6 
        8750.47      4.33433e+6 
        8767.92      4.31752e+6 
        8815.35      4.27209e+6 
        8862.78      4.22745e+6 
        8900.38      4.19239e+6 
        8957.65      4.13943e+6 
        9014.91      4.08699e+6 
        9044.62      4.06013e+6 
        9072.17      4.03528e+6 
        9099.72      4.01059e+6 
        9154.81      3.96205e+6 
         9190.8       3.9306e+6 
         9209.9      3.91398e+6 
        9229.01       3.8973e+6 
        9267.22       3.8646e+6 
         9303.2      3.83391e+6 
        9343.64      3.79966e+6 
        9384.08       3.7657e+6 
        9464.96      3.69923e+6 
        9545.72      3.63338e+6 
        9561.21      3.62141e+6 
        9576.69      3.60916e+6 
        9607.66      3.58462e+6 
        9668.45      3.53687e+6 
        9729.24      3.49015e+6 
        9790.04        3.444e+6 
        9850.83      3.39845e+6 
        9870.42      3.38387e+6 
        9911.62      3.35346e+6 
        9952.82      3.32327e+6 
        10021.1      3.27395e+6 
        10035.2      3.26352e+6 
        10049.4      3.25233e+6 
        10077.7      3.23396e+6 
        10134.2      3.19481e+6 
        10144.5      3.18774e+6 
        10190.8      3.15582e+6 
        10237.2       3.1242e+6 
        10329.9       3.0633e+6 
        10422.6      3.00357e+6 
        10515.3      2.94498e+6 
          10608      2.88755e+6 
        10700.7      2.83124e+6 
        10793.4        2.776e+6 
        10834.1      2.75201e+6 
        10886.1      2.72132e+6 
        10938.1      2.68616e+6 
        10990.1        2.662e+6 
          11042      2.63336e+6 
          11094      2.60466e+6 
          11146      2.57622e+6 
          11198      2.54808e+6 
          11239      2.52609e+6 
          11250      2.52026e+6 
        11260.9      2.51444e+6 
        11282.8      2.50328e+6 
        11326.6      2.48112e+6 
        11414.2      2.43739e+6 
        11501.8      2.39447e+6 
        11589.4      2.35232e+6 
          11677      2.31095e+6 
        11764.6      2.27034e+6 
        11852.2       2.2305e+6 
        11939.8       2.1914e+6 
        12027.4      2.15301e+6 
          12115      2.11535e+6 
        12202.6      2.07841e+6 
        12284.6      2.04445e+6 
        12366.6      2.01256e+6 
        12448.7      1.98119e+6 
        12530.7       1.9503e+6 
        12612.7      1.91984e+6 
        12694.7      1.88955e+6 
        12735.4      1.87417e+6 
          12756      1.86585e+6 
        12776.7      1.85648e+6 
        12797.4      1.84427e+6 
        12807.7      1.83619e+6 
        12818.1      1.82631e+6 
        12828.4      1.82892e+6 
        12838.7      1.82972e+6 
        12849.1      1.82909e+6 
        12859.4      1.82738e+6 
        12874.9      1.82363e+6 
        12895.6      1.81758e+6 
        12936.9      1.80423e+6 
        13019.6      1.77658e+6 
        13102.3      1.74905e+6 
          13185      1.72191e+6 
        13227.1      1.70826e+6 
        13267.7       1.6952e+6 
        13308.4      1.68224e+6 
        13389.6      1.65801e+6 
        13470.8      1.63412e+6 
          13552      1.61059e+6 
        13633.2      1.58742e+6 
        13714.4      1.56459e+6 
        13795.7      1.54211e+6 
        13876.9      1.51997e+6 
        13958.1      1.49816e+6 
        14039.3       1.4767e+6 
        14120.5      1.45555e+6 
        14201.7      1.43474e+6 
        14233.9      1.42659e+6 
          14283      1.41424e+6 
        14332.1      1.40201e+6 
        14402.9       1.3851e+6 
        14430.3      1.37862e+6 
        14457.6      1.37218e+6 
        14512.4      1.35947e+6 
          14551      1.35059e+6 
        14567.1      1.34689e+6 
        14581.2      1.34366e+6 
        14597.2      1.34008e+6 
        14613.2      1.33653e+6 
        14645.2      1.32945e+6 
        14709.2      1.31539e+6 
        14773.2      1.30149e+6 
        14837.1      1.28773e+6 
        14901.1      1.27413e+6 
        14965.1      1.26067e+6 
        15029.1      1.24735e+6 
        15093.1      1.23417e+6 
        15157.1      1.22114e+6 
          15221      1.20825e+6 
          15285       1.1955e+6 
          15349      1.18289e+6 
