# Koester WD models
# teff = 5250 K (value for the effective temperature for the model. Temperatures are given in K)
# logg = 7.5 log(cm/s2) (value for Log(G) for the model.)
#
# column 1: WAVELENGTH (ANGSTROM), Wavelength in Angstrom
# column 2: FLUX (ERG/CM2/S/A), Flux in erg/cm2/s/A
         899.23     0.000744853 
        909.241       0.0010547 
        919.251       0.0014813 
        929.261      0.00205797 
        939.271       0.0028214 
         949.28       0.0039181 
        959.289      0.00546232 
        969.297      0.00760143 
        979.305       0.0103952 
        989.312       0.0140055 
        999.319       0.0186721 
        1009.33       0.0246878 
        1019.33       0.0323773 
        1029.34       0.0421105 
        1039.34         0.05479 
        1049.35       0.0705206 
        1059.36       0.0903365 
        1069.36        0.115003 
        1079.36        0.145859 
        1089.37        0.183846 
        1099.37        0.230914 
        1109.38        0.288366 
        1119.38        0.359442 
        1129.38        0.445594 
        1139.39        0.549386 
        1149.39        0.672869 
        1159.39        0.813896 
        1169.39        0.967692 
         1179.4         1.14759 
         1189.4          1.3909 
         1199.4         1.68275 
         1209.4         2.03748 
        1219.41         2.44865 
        1229.41         2.90452 
        1239.41         3.46678 
        1249.41         4.12526 
        1259.41         4.89369 
        1269.41         5.81371 
        1279.42         6.91062 
        1289.42         8.17037 
        1299.42         9.59662 
        1309.42         11.2494 
        1319.42         13.1219 
        1329.42         15.2849 
        1339.42         17.7272 
        1349.42         20.5123 
        1359.42         23.7088 
        1369.42         27.2667 
        1379.42         31.3133 
        1389.42           35.91 
        1399.42         41.0386 
        1409.42         46.7604 
        1419.42         53.2751 
        1429.42         60.5564 
        1439.42         68.5348 
        1454.42         82.2978 
        1464.42         92.9714 
        1474.42           104.8 
        1489.42          124.31 
        1504.42         146.883 
        1514.42         164.331 
        1529.42         194.502 
        1544.42         228.393 
        1559.42         265.421 
        1570.19         294.552 
        1584.41         338.478 
        1599.41         391.345 
        1614.41         453.439 
        1629.41         528.617 
        1644.41         618.969 
        1659.41         721.385 
        1670.17         802.737 
         1684.4         922.054 
         1699.4         1066.48 
         1714.4         1226.55 
         1729.4         1403.34 
         1744.4         1595.63 
        1759.39         1801.09 
         1771.7         1984.64 
        1784.39         2195.06 
        1799.39         2467.81 
        1819.38         2869.87 
        1834.77         3213.28 
        1845.54         3472.03 
         1856.3         3752.26 
        1867.07         4048.41 
        1882.44         4506.43 
        1894.73         4904.59 
        1906.98         5330.37 
        1919.37         5792.41 
        1931.76         6281.83 
        1944.14          6819.2 
        1956.53         7390.91 
        1968.59         7971.01 
        1980.65         8587.64 
        1992.71         9244.67 
        2004.77         9942.51 
        2015.84         10621.6 
        2031.63         11677.6 
        2047.42         12783.1 
        2059.38         13677.9 
        2074.69         14906.1 
        2089.99         16232.9 
         2105.3         17657.8 
        2116.25         18746.7 
         2127.2         19893.8 
        2138.15         21133.1 
         2149.1         22396.4 
        2165.47         24395.7 
        2181.85         26534.6 
        2198.13         28825.5 
         2214.7         31329.9 
        2231.26         33971.9 
        2247.83         36809.4 
        2259.89         39006.3 
        2271.95         41563.3 
        2288.04         45147.2 
        2304.12         49024.6 
        2322.15         53563.8 
        2336.03         57135.2 
        2349.19         60737.7 
        2362.35         64551.9 
        2375.52         68595.4 
        2388.68         72880.9 
        2401.85         77469.2 
         2416.7         82992.4 
        2438.98         92178.4 
        2451.48         97587.3 
        2465.39          104409 
        2475.96          109944 
        2492.99          119445 
        2510.01          129786 
        2527.04          140332 
        2543.14          151009 
        2555.21          159470 
        2567.28          169245 
        2579.35          180050 
        2591.43          191497 
        2607.52          208111 
        2623.62          225345 
        2637.85          241665 
        2652.72          259771 
        2667.58          276621 
         2687.4          298693 
        2707.21          321875 
        2727.03          346241 
        2737.59          359737 
        2756.11          384195 
        2774.63          410911 
        2793.15          438818 
        2811.67          467931 
        2830.19          498200 
        2842.89          519557 
        2854.55          539575 
        2866.21          561560 
        2877.87          584119 
        2901.19          631093 
        2924.51          680717 
        2942.69          721080 
        2952.98          744611 
        2963.28          767321 
        2983.87          813977 
        2998.68          848516 
        3025.05          911967 
        3038.24          944674 
        3051.42          978034 
        3064.61      1.01604e+6 
        3077.79      1.05502e+6 
        3104.16       1.1358e+6 
        3130.53         1.22e+6 
        3149.86      1.28374e+6 
        3169.18       1.3549e+6 
        3188.51      1.42813e+6 
        3207.84      1.50344e+6 
        3227.17      1.58076e+6 
         3244.7      1.65261e+6 
        3255.48      1.68966e+6 
        3277.04       1.7567e+6 
        3305.78       1.8475e+6 
        3346.73      1.97943e+6 
        3387.68      2.11522e+6 
        3412.08      2.19732e+6 
        3428.62      2.25345e+6 
        3445.17      2.30993e+6 
        3478.25      2.42118e+6 
        3495.92      2.48092e+6 
         3543.6      2.64316e+6 
        3591.28      2.80429e+6 
        3635.88      2.95449e+6 
        3647.12      2.99284e+6 
        3658.96       3.0332e+6 
        3671.11      3.07437e+6 
        3682.58      3.11294e+6 
         3693.5      3.14942e+6 
        3703.57      3.18287e+6 
        3713.83      3.21671e+6 
        3724.38      3.24947e+6 
        3734.43      3.27753e+6 
        3744.62      3.30618e+6 
        3754.84      3.33461e+6 
        3765.07      3.36289e+6 
         3775.5      3.39154e+6 
        3786.22      3.42082e+6 
        3796.45      3.44831e+6 
        3807.84      3.47919e+6 
        3818.92      3.50894e+6 
        3830.45      3.54029e+6 
        3840.76       3.5685e+6 
        3851.98      3.59929e+6 
        3862.01      3.62625e+6 
        3872.59      3.65427e+6 
         3884.4      3.68292e+6 
        3894.46      3.70978e+6 
        3908.89       3.7494e+6 
        3923.89      3.78967e+6 
        3935.81       3.8219e+6 
        3946.58       3.8504e+6 
        3957.31      3.87723e+6 
        3967.38      3.88712e+6 
        3977.86      3.92756e+6 
        3988.87      3.96004e+6 
        4003.87      3.99859e+6 
        4018.86      4.03635e+6 
        4032.38      4.07018e+6 
        4043.86      4.09836e+6 
        4058.85      4.13437e+6 
        4073.85      4.16905e+6 
           4084      4.19054e+6 
        4096.52      4.19421e+6 
        4106.79      4.21602e+6 
        4117.77      4.26701e+6 
        4128.84      4.29544e+6 
        4143.83      4.33021e+6 
        4158.83      4.36355e+6 
        4173.82      4.39587e+6 
        4188.82      4.42732e+6 
        4203.81      4.45795e+6 
        4216.52      4.48368e+6 
        4228.81      4.50806e+6 
        4243.81      4.53706e+6 
         4258.8      4.56517e+6 
         4273.8      4.59241e+6 
        4288.79      4.61864e+6 
        4303.79      4.64327e+6 
        4314.07      4.65776e+6 
        4326.14      4.66592e+6 
        4336.17      4.59241e+6 
        4346.17      4.63963e+6 
        4357.43      4.71883e+6 
        4367.98      4.74186e+6 
        4378.77      4.75992e+6 
        4393.77      4.78251e+6 
        4408.76      4.80183e+6 
        4423.76      4.81901e+6 
        4438.75       4.8357e+6 
        4453.75      4.85197e+6 
        4468.74      4.86783e+6 
        4483.74      4.88332e+6 
        4498.74      4.89928e+6 
        4513.73       4.9192e+6 
        4527.19      4.93638e+6 
        4538.73      4.95062e+6 
        4553.72      4.96846e+6 
        4568.72      4.98561e+6 
        4583.72      5.00204e+6 
        4596.53       5.0153e+6 
        4608.71      5.02655e+6 
         4623.7      5.03987e+6 
         4638.7      5.05278e+6 
         4653.7      5.06519e+6 
        4668.69      5.07719e+6 
        4683.69      5.08872e+6 
        4698.68      5.09962e+6 
        4713.68      5.10983e+6 
        4724.83      5.11718e+6 
        4738.67      5.12598e+6 
        4753.67      5.13512e+6 
        4768.67      5.14373e+6 
        4783.66      5.15177e+6 
        4798.66       5.1589e+6 
        4813.65      5.16443e+6 
        4828.65      5.16582e+6 
        4839.16      5.15787e+6 
        4850.22      5.10261e+6 
        4860.36      4.49735e+6 
        4870.86      5.08894e+6 
        4882.91      5.17668e+6 
        4893.63      5.19509e+6 
        4908.63      5.20732e+6 
         4921.7      5.21438e+6 
        4933.62      5.21972e+6 
        4948.62      5.22563e+6 
        4963.61      5.23097e+6 
        4978.61      5.23587e+6 
        4993.61       5.2403e+6 
         5008.6      5.24439e+6 
         5023.6      5.24816e+6 
        5038.59      5.25164e+6 
        5053.59      5.25488e+6 
        5068.59      5.25786e+6 
        5083.58       5.2605e+6 
        5098.58      5.26273e+6 
        5113.57      5.26471e+6 
        5128.57       5.2665e+6 
        5143.57      5.26804e+6 
        5158.56      5.26939e+6 
        5173.56      5.27052e+6 
        5188.55      5.27128e+6 
        5203.55      5.27175e+6 
        5218.55      5.27206e+6 
        5233.54      5.27216e+6 
        5248.54      5.27206e+6 
        5263.53      5.27178e+6 
        5278.53      5.27159e+6 
        5293.52      5.27184e+6 
        5308.52      5.27184e+6 
        5323.52      5.27159e+6 
        5338.51      5.27112e+6 
        5353.51      5.27043e+6 
        5368.51      5.26955e+6 
         5383.5      5.26773e+6 
         5398.5      5.26559e+6 
        5413.49      5.26327e+6 
        5428.49      5.26079e+6 
        5443.48      5.25815e+6 
        5458.48      5.25535e+6 
        5473.48      5.25262e+6 
        5488.47      5.25004e+6 
        5503.47      5.24734e+6 
        5518.47      5.24445e+6 
        5533.46       5.2414e+6 
        5548.46       5.2382e+6 
        5563.45      5.23484e+6 
        5578.45      5.23129e+6 
        5593.44      5.22758e+6 
        5608.44      5.22375e+6 
        5623.44      5.21976e+6 
        5638.43      5.21561e+6 
        5653.43      5.21134e+6 
        5668.43      5.20697e+6 
        5682.86      5.20257e+6 
        5693.42      5.19927e+6 
        5704.77      5.19566e+6 
        5715.23      5.19227e+6 
        5728.41      5.18787e+6 
         5743.4      5.18278e+6 
         5758.4      5.17756e+6 
         5773.4      5.17197e+6 
        5788.39      5.16651e+6 
        5803.39      5.16088e+6 
        5818.39      5.15517e+6 
        5833.38      5.14932e+6 
        5848.38      5.14335e+6 
        5863.37      5.13729e+6 
        5878.37       5.1311e+6 
        5893.36      5.12482e+6 
        5908.36      5.11844e+6 
        5923.36      5.11194e+6 
        5938.35      5.10534e+6 
        5953.35      5.09862e+6 
        5968.34      5.09177e+6 
        5983.34      5.08486e+6 
        5998.34      5.07782e+6 
        6013.33      5.07066e+6 
        6028.33      5.06343e+6 
        6043.32      5.05611e+6 
        6058.32       5.0487e+6 
        6073.32      5.04116e+6 
        6088.31      5.03355e+6 
        6103.31      5.02589e+6 
         6118.3       5.0181e+6 
         6133.3      5.01024e+6 
         6148.3       5.0023e+6 
        6163.29      4.99425e+6 
        6178.29      4.98615e+6 
        6193.28      4.97795e+6 
        6208.28      4.96969e+6 
        6223.28      4.96133e+6 
        6238.27      4.95288e+6 
        6252.16      4.94499e+6 
        6262.16      4.93927e+6 
        6273.26      4.93287e+6 
        6284.63      4.92627e+6 
        6295.99      4.91961e+6 
        6306.09      4.91367e+6 
        6316.22      4.90764e+6 
        6328.25      4.90044e+6 
        6343.24       4.8914e+6 
        6358.24      4.88219e+6 
        6373.23      4.87289e+6 
        6388.23      4.86341e+6 
        6403.23      4.85376e+6 
        6418.22      4.84383e+6 
        6433.22      4.83356e+6 
        6448.22      4.82278e+6 
        6463.21      4.81122e+6 
        6478.21      4.79834e+6 
         6493.2      4.78301e+6 
         6508.2      4.76247e+6 
        6523.19      4.72876e+6 
         6536.1      4.66759e+6 
        6546.46      4.54284e+6 
        6556.84      4.11454e+6 
        6567.44      3.99199e+6 
        6577.77      4.49788e+6 
        6587.91      4.62556e+6 
        6598.17      4.67061e+6 
        6613.66      4.69219e+6 
        6623.98      4.69536e+6 
        6644.62        4.692e+6 
        6665.26       4.6832e+6 
        6701.62        4.663e+6 
        6721.34      4.65094e+6 
         6736.2      4.64161e+6 
        6780.49      4.61293e+6 
        6824.78      4.58346e+6 
        6913.35      4.52355e+6 
        7001.93      4.46229e+6 
        7071.86      4.41328e+6 
         7090.5      4.40011e+6 
        7109.15      4.38692e+6 
        7146.44      4.36075e+6 
        7221.02      4.30807e+6 
         7295.6        4.255e+6 
        7346.84      4.21837e+6 
        7370.18      4.20175e+6 
        7393.51      4.18501e+6 
        7440.19      4.15183e+6 
        7533.55      4.08533e+6 
        7575.92      4.05507e+6 
         7626.9      4.01866e+6 
        7677.88      3.98228e+6 
        7728.86      3.94628e+6 
        7779.84      3.91031e+6 
        7830.82      3.87437e+6 
         7881.8      3.83846e+6 
        7903.32      3.82335e+6 
        7932.78      3.80265e+6 
        7962.25      3.78197e+6 
        8021.18      3.74104e+6 
        8077.68      3.70193e+6 
        8097.18      3.68848e+6 
        8108.49      3.68069e+6 
        8155.67      3.64833e+6 
        8200.85      3.61742e+6 
        8216.85      3.60655e+6 
        8232.84      3.59571e+6 
        8264.83      3.57406e+6 
        8289.72      3.55726e+6 
        8328.82      3.53093e+6 
        8343.44       3.5211e+6 
        8367.92       3.5047e+6 
        8388.68      3.49087e+6 
        8408.65      3.47759e+6 
        8432.02       3.4621e+6 
        8467.25      3.43882e+6 
        8502.48       3.4156e+6 
        8516.58      3.40633e+6 
        8530.98      3.39688e+6 
        8545.38      3.38752e+6 
        8574.18      3.36886e+6 
        8598.39      3.35318e+6 
         8628.6       3.3337e+6 
        8646.81      3.32198e+6 
        8665.01       3.3103e+6 
        8685.59      3.29713e+6 
        8701.43      3.28699e+6 
        8750.47      3.25576e+6 
        8767.92       3.2447e+6 
        8815.35      3.21473e+6 
        8862.78      3.18523e+6 
        8900.38      3.16198e+6 
        8957.65      3.12683e+6 
        9014.91      3.09185e+6 
        9044.62      3.07386e+6 
        9072.17      3.05722e+6 
        9099.72      3.04063e+6 
        9154.81      3.00799e+6 
         9190.8      2.98679e+6 
         9209.9      2.97558e+6 
        9229.01      2.96432e+6 
        9267.22      2.94215e+6 
         9303.2      2.92131e+6 
        9343.64      2.89801e+6 
        9384.08      2.87486e+6 
        9464.96      2.82943e+6 
        9545.72      2.78435e+6 
        9561.21      2.77601e+6 
        9576.69      2.76756e+6 
        9607.66      2.75064e+6 
        9668.45      2.71763e+6 
        9729.24      2.68526e+6 
        9790.04      2.65321e+6 
        9850.83      2.62147e+6 
        9870.42      2.61131e+6 
        9911.62      2.59005e+6 
        9952.82      2.56894e+6 
        10021.1       2.5345e+6 
        10035.2      2.52724e+6 
        10049.4      2.51967e+6 
        10077.7      2.50636e+6 
        10134.2      2.47863e+6 
        10144.5      2.47362e+6 
        10190.8      2.45105e+6 
        10237.2      2.42866e+6 
        10329.9       2.3855e+6 
        10422.6        2.343e+6 
        10515.3      2.30118e+6 
          10608      2.26004e+6 
        10700.7      2.21956e+6 
        10793.4      2.17975e+6 
        10834.1      2.16246e+6 
        10886.1      2.14047e+6 
        10938.1      2.11651e+6 
        10990.1       2.0974e+6 
          11042      2.07631e+6 
          11094      2.05532e+6 
          11146      2.03453e+6 
          11198      2.01393e+6 
          11239      1.99782e+6 
          11250      1.99354e+6 
        11260.9      1.98928e+6 
        11282.8      1.98112e+6 
        11326.6      1.96489e+6 
        11414.2      1.93282e+6 
        11501.8      1.90126e+6 
        11589.4      1.87018e+6 
          11677      1.83961e+6 
        11764.6      1.80953e+6 
        11852.2      1.77993e+6 
        11939.8      1.75082e+6 
        12027.4      1.72217e+6 
          12115      1.69402e+6 
        12202.6      1.66633e+6 
        12284.6      1.64082e+6 
        12366.6      1.61697e+6 
        12448.7      1.59346e+6 
        12530.7      1.57027e+6 
        12612.7      1.54741e+6 
        12694.7      1.52479e+6 
        12735.4      1.51357e+6 
        12776.7      1.50157e+6 
        12797.4      1.49418e+6 
        12807.7      1.48916e+6 
        12818.1      1.48322e+6 
        12828.4      1.48365e+6 
        12838.7      1.48315e+6 
        12849.1      1.48162e+6 
        12859.4      1.47953e+6 
        12880.1      1.47468e+6 
        12921.4       1.4642e+6 
        13004.1      1.44291e+6 
        13086.8      1.42182e+6 
        13169.5      1.40102e+6 
        13196.1       1.3944e+6 
        13252.2      1.38054e+6 
        13308.4      1.36681e+6 
        13364.5      1.35409e+6 
        13420.6      1.34148e+6 
        13476.7      1.32898e+6 
        13532.8       1.3166e+6 
        13588.9      1.30433e+6 
          13645      1.29218e+6 
        13701.2      1.28013e+6 
        13757.3       1.2682e+6 
        13813.4      1.25638e+6 
        13869.5      1.24467e+6 
        13925.6      1.23307e+6 
        13981.7      1.22157e+6 
        14037.8      1.21019e+6 
          14094      1.19892e+6 
        14150.1      1.18775e+6 
        14206.2      1.17668e+6 
        14262.3      1.16573e+6 
        14304.8      1.15751e+6 
        14318.4      1.15488e+6 
        14332.1      1.15226e+6 
        14359.4      1.14724e+6 
        14370.3      1.14524e+6 
          14414      1.13728e+6 
        14457.6      1.12936e+6 
        14506.8      1.12062e+6 
          14545      1.11386e+6 
        14581.2      1.10748e+6 
        14597.2      1.10476e+6 
        14613.2      1.10207e+6 
        14645.2       1.0967e+6 
        14709.2      1.08604e+6 
        14773.2      1.07547e+6 
        14837.1      1.06499e+6 
        14901.1       1.0546e+6 
        14965.1      1.04431e+6 
        15029.1       1.0341e+6 
        15093.1      1.02399e+6 
        15157.1      1.01397e+6 
          15221      1.00404e+6 
          15285          994210 
