# Koester WD models
# teff = 5500 K (value for the effective temperature for the model. Temperatures are given in K)
# logg = 7.25 log(cm/s2) (value for Log(G) for the model.)
#
# column 1: WAVELENGTH (ANGSTROM), Wavelength in Angstrom
# column 2: FLUX (ERG/CM2/S/A), Flux in erg/cm2/s/A
         899.23      0.00273645 
        909.241      0.00381977 
        919.251      0.00529575 
        929.261      0.00734517 
        939.271        0.010313 
         949.28       0.0134416 
        959.289       0.0203738 
        969.297       0.0283953 
        979.305       0.0390054 
        989.312       0.0524005 
        999.319       0.0693997 
        1009.33        0.090945 
        1019.33        0.117645 
        1029.34        0.150188 
        1039.34        0.195682 
        1049.35        0.248727 
        1059.36        0.314725 
        1069.36        0.395429 
        1079.36        0.495561 
        1089.37        0.616528 
        1099.37        0.765242 
        1109.38        0.943574 
        1119.38         1.16408 
        1129.38          1.4271 
        1139.39         1.73799 
        1149.39         2.09851 
        1159.39         2.48883 
        1169.39          2.8851 
         1179.4         3.30313 
         1189.4         3.91119 
         1199.4         4.66184 
         1209.4         5.47897 
        1219.41         6.49373 
        1229.41         7.94295 
        1239.41         9.47693 
        1249.41         11.2197 
        1259.41         13.2353 
        1269.41         15.7254 
        1279.42         18.6851 
        1289.42          22.007 
        1299.42         25.6985 
        1309.42         29.9563 
        1319.42         34.7061 
        1329.42         40.1926 
        1339.42         46.2945 
        1349.42         53.2079 
        1359.42         61.1398 
        1369.42         69.8206 
        1379.42         79.6384 
        1389.42         90.7641 
        1399.42         103.068 
        1409.42         116.633 
        1419.42         132.042 
        1429.42         149.147 
        1439.42         167.655 
        1454.42          199.48 
        1464.42          224.11 
        1474.42         251.093 
        1489.42         294.612 
        1504.42         344.601 
        1514.42         383.724 
        1529.42         451.362 
        1544.42         525.548 
        1559.42         603.211 
        1570.19         663.479 
        1584.41         754.673 
        1599.41          864.18 
        1614.41         995.853 
        1629.41         1160.71 
        1644.41         1364.67 
        1659.41         1602.41 
        1670.17         1795.83 
         1684.4         2081.42 
         1699.4         2435.31 
         1714.4         2819.68 
         1729.4         3238.57 
         1744.4         3682.95 
        1759.39         4139.33 
         1771.7         4542.11 
        1784.39         5012.19 
        1799.39         5620.72 
        1819.38         6508.59 
        1834.77         7261.26 
        1845.54         7825.14 
         1856.3         8448.21 
        1867.07         9099.18 
        1882.44         10105.2 
        1894.73         10983.6 
        1907.03         11930.6 
        1919.18         12941.2 
        1931.21         13991.6 
        1943.24         15197.9 
        1953.98         16346.9 
        1968.59         17917.9 
         1983.2         19612.2 
        1997.81         21447.5 
        2012.42         23444.5 
         2023.2         25082.3 
        2039.36           27683 
        2050.14         29458.1 
        2060.91         31342.7 
        2073.15         33654.9 
         2091.5         37444.3 
        2103.73         40174.4 
        2115.68         43010.6 
        2134.04         47861.2 
        2152.41         53197.2 
        2165.47         57174.5 
        2178.54         61365.7 
        2191.61           65834 
        2204.67         70620.5 
         2214.7         74540.9 
        2224.72         78518.1 
        2234.74         82671.3 
        2244.76         87001.7 
        2259.12         93531.2 
         2271.1          100587 
        2283.07          107911 
        2297.43          117484 
        2313.13          128907 
        2325.38          136974 
        2337.63          145501 
        2349.87          154513 
        2361.88          163882 
        2376.91          176063 
        2391.93          188989 
        2404.63          200635 
        2423.21          219251 
        2445.98          243568 
        2456.19          254818 
        2474.59          278745 
        2492.99          304074 
        2510.01          329569 
        2527.04          354541 
        2544.07          381019 
        2555.44          399604 
        2566.81          421542 
        2578.19          445886 
        2593.35          480532 
        2608.52          519707 
        2623.68          558123 
        2638.85          598580 
        2650.36          630910 
        2661.32          660702 
        2672.28          686831 
         2686.9          722767 
        2701.52          759910 
        2716.13          798360 
        2730.75          838111 
        2745.36          879121 
        2756.11          910091 
        2766.85          943194 
         2777.6          977117 
        2799.09      1.04727e+6 
        2820.58      1.12054e+6 
        2842.07      1.19691e+6 
        2854.55      1.24188e+6 
        2867.02      1.28979e+6 
         2879.5      1.33871e+6 
        2904.45      1.43963e+6 
         2929.4      1.54465e+6 
        2952.98      1.64766e+6 
        2976.57      1.74637e+6 
        3000.16      1.84799e+6 
        3023.74      1.95221e+6 
        3043.24      2.04015e+6 
         3059.6      2.11843e+6 
        3075.95       2.2013e+6 
        3108.67      2.37075e+6 
        3129.26       2.4798e+6 
        3149.86      2.58858e+6 
        3170.45       2.7034e+6 
        3191.05      2.81981e+6 
        3211.64      2.93756e+6 
        3232.24      3.05662e+6 
        3248.29       3.1502e+6 
        3264.35       3.2191e+6 
        3280.41      3.28805e+6 
        3296.46      3.35704e+6 
        3310.42      3.41698e+6 
        3320.92       3.4621e+6 
        3346.73      3.57287e+6 
        3383.04      3.72624e+6 
        3445.17      3.98674e+6 
        3470.98       4.0896e+6 
        3495.92       4.1879e+6 
        3507.29      4.23226e+6 
         3543.6      4.37281e+6 
        3591.28      4.54962e+6 
        3635.88        4.709e+6 
        3647.12      4.74861e+6 
        3658.96      4.78999e+6 
        3671.11       4.8319e+6 
        3682.58      4.87095e+6 
         3693.5      4.90761e+6 
        3703.57        4.941e+6 
        3713.83      4.97468e+6 
        3724.38      5.00748e+6 
        3734.43      5.03506e+6 
        3744.62      5.06513e+6 
        3754.84      5.09384e+6 
        3765.07      5.12227e+6 
         3775.5      5.15111e+6 
        3786.22      5.18064e+6 
        3796.45      5.20402e+6 
        3807.84      5.23945e+6 
        3818.92      5.26936e+6 
        3830.45      5.29641e+6 
        3840.76      5.32522e+6 
        3851.98      5.35946e+6 
        3862.01      5.38629e+6 
        3872.59      5.41318e+6 
         3884.4      5.42745e+6 
        3896.36      5.46785e+6 
        3907.03      5.50159e+6 
        3918.89      5.53238e+6 
        3929.56       5.5598e+6 
        3940.04      5.58578e+6 
        3950.65      5.61038e+6 
        3962.28      5.62405e+6 
        3972.79      5.57165e+6 
        3984.18      5.68788e+6 
        3996.36      5.71999e+6 
        4008.87      5.74902e+6 
        4023.86      5.78295e+6 
         4035.9      5.80943e+6 
        4048.86      5.83714e+6 
        4063.85      5.86793e+6 
        4075.42      5.88995e+6 
         4085.7      5.90491e+6 
        4096.52       5.8608e+6 
        4106.79      5.87673e+6 
        4117.77      5.96793e+6 
        4128.84      5.99545e+6 
        4143.83      6.02576e+6 
        4158.83      6.05397e+6 
        4173.82      6.08099e+6 
        4188.82       6.1071e+6 
        4203.81      6.13233e+6 
        4216.52      6.15334e+6 
        4228.81      6.17314e+6 
        4243.81      6.19654e+6 
         4258.8      6.21907e+6 
         4273.8      6.24071e+6 
        4288.79      6.26119e+6 
        4303.79      6.27979e+6 
        4314.07      6.28953e+6 
        4326.14      6.28714e+6 
        4336.17       6.1087e+6 
         4346.3      6.20593e+6 
        4357.43      6.33241e+6 
        4367.98      6.35576e+6 
        4378.77      6.37131e+6 
        4393.77      6.38947e+6 
        4408.76      6.40483e+6 
        4423.76      6.41846e+6 
        4438.75       6.4315e+6 
        4453.75      6.44403e+6 
        4468.74       6.4561e+6 
        4483.74      6.46775e+6 
        4498.74      6.48136e+6 
        4513.73      6.49512e+6 
        4527.19      6.50687e+6 
        4538.73      6.51651e+6 
        4553.72      6.52851e+6 
        4568.72      6.53985e+6 
        4583.72       6.5506e+6 
        4596.53      6.55917e+6 
        4608.71       6.5664e+6 
         4623.7      6.57482e+6 
         4638.7      6.58283e+6 
         4653.7      6.59037e+6 
        4668.69      6.59747e+6 
        4683.69      6.60413e+6 
        4698.68      6.61026e+6 
        4713.68      6.61579e+6 
        4724.83      6.61965e+6 
        4738.67      6.62408e+6 
        4753.67      6.62845e+6 
        4768.67      6.63231e+6 
        4783.66      6.63551e+6 
        4798.66      6.63771e+6 
        4813.65      6.63809e+6 
        4828.65      6.63344e+6 
        4839.16      6.61902e+6 
        4850.22      6.53995e+6 
        4860.28      5.02793e+6 
        4870.86      6.50973e+6 
        4882.91      6.62402e+6 
        4893.63      6.64236e+6 
        4908.63      6.65119e+6 
         4921.7      6.65455e+6 
        4933.62      6.65631e+6 
        4948.62      6.65763e+6 
        4963.61      6.65826e+6 
        4978.61      6.65842e+6 
        4993.61      6.65817e+6 
         5008.6      6.65747e+6 
         5023.6      6.65647e+6 
        5038.59      6.65515e+6 
        5053.59      6.65358e+6 
        5068.59      6.65173e+6 
        5083.58      6.64956e+6 
        5098.58      6.64704e+6 
        5113.57      6.64428e+6 
        5128.57       6.6413e+6 
        5143.57      6.63806e+6 
        5158.56       6.6346e+6 
        5173.56      6.63093e+6 
        5188.55      6.62694e+6 
        5203.55       6.6227e+6 
        5218.55      6.61827e+6 
        5233.54      6.61362e+6 
        5248.54      6.60875e+6 
        5263.53      6.60372e+6 
        5278.53       6.5986e+6 
        5293.52      6.59364e+6 
        5308.52      6.58845e+6 
        5323.52      6.58305e+6 
        5338.51      6.57743e+6 
        5353.51      6.57158e+6 
        5368.51      6.56558e+6 
         5383.5      6.55899e+6 
         5398.5      6.55207e+6 
        5413.49      6.54504e+6 
        5428.49      6.53781e+6 
        5443.48      6.53043e+6 
        5458.48      6.52286e+6 
        5473.48      6.51525e+6 
        5488.47      6.50768e+6 
        5503.47      6.49996e+6 
        5518.47      6.49207e+6 
        5533.46        6.484e+6 
        5548.46       6.4758e+6 
        5563.45      6.46744e+6 
        5578.45      6.45893e+6 
        5593.44      6.45026e+6 
        5608.44      6.44143e+6 
        5623.44      6.43247e+6 
        5638.43      6.42336e+6 
        5653.43      6.41416e+6 
        5668.43      6.40489e+6 
        5682.86      6.39572e+6 
        5693.42      6.38896e+6 
        5704.77      6.38161e+6 
        5715.23      6.37479e+6 
        5728.41      6.36609e+6 
         5743.4       6.3561e+6 
         5758.4      6.34595e+6 
         5773.4      6.33549e+6 
        5788.39      6.32513e+6 
        5803.39      6.31466e+6 
        5818.39      6.30408e+6 
        5833.38       6.2934e+6 
        5848.38      6.28259e+6 
        5863.37      6.27169e+6 
        5878.37      6.26066e+6 
        5893.36      6.24957e+6 
        5908.36      6.23835e+6 
        5923.36      6.22708e+6 
        5938.35      6.21567e+6 
        5953.35      6.20417e+6 
        5968.34      6.19258e+6 
        5983.34      6.18093e+6 
        5998.34      6.16915e+6 
        6013.33      6.15727e+6 
        6028.33       6.1453e+6 
        6043.32      6.13327e+6 
        6058.32      6.12114e+6 
        6073.32      6.10892e+6 
        6088.31      6.09667e+6 
        6103.31      6.08429e+6 
         6118.3      6.07188e+6 
         6133.3      6.05938e+6 
         6148.3      6.04681e+6 
        6163.29      6.03415e+6 
        6178.29      6.02143e+6 
        6193.28      6.00864e+6 
        6208.28      5.99579e+6 
        6223.28      5.98288e+6 
        6238.27      5.96991e+6 
        6252.16      5.95781e+6 
        6262.16      5.94908e+6 
        6273.26      5.93931e+6 
        6284.63      5.92932e+6 
        6295.99      5.91926e+6 
        6306.09      5.91028e+6 
        6316.22      5.90126e+6 
        6328.25      5.89055e+6 
        6343.24      5.87707e+6 
        6358.24       5.8635e+6 
        6373.23       5.8498e+6 
        6388.23      5.83598e+6 
        6403.23      5.82197e+6 
        6418.22      5.80771e+6 
        6433.22       5.7931e+6 
        6448.22      5.77799e+6 
        6463.21      5.76209e+6 
        6478.21      5.74484e+6 
         6493.2      5.72502e+6 
         6508.2       5.6997e+6 
        6523.19      5.66005e+6 
         6536.1      5.58952e+6 
        6546.46      5.44008e+6 
        6556.84      4.84503e+6 
        6567.14        4.598e+6 
        6578.18        5.391e+6 
        6588.44      5.53593e+6 
        6603.34      5.59087e+6 
        6613.66      5.60001e+6 
        6623.98      5.60089e+6 
        6644.62      5.59232e+6 
        6660.33      5.58176e+6 
         6685.9      5.56153e+6 
        6711.48      5.53954e+6 
        6762.62      5.49361e+6 
        6802.75       5.4566e+6 
        6813.77      5.44639e+6 
        6824.78      5.43612e+6 
        6846.81       5.4157e+6 
        6890.86      5.37461e+6 
        6978.98      5.29176e+6 
        7025.03      5.24822e+6 
        7067.09      5.20835e+6 
        7109.15      5.16842e+6 
        7193.26      5.08929e+6 
        7277.38      5.01009e+6 
        7329.48      4.96105e+6 
         7361.5      4.93092e+6 
        7393.51      4.90092e+6 
        7457.55      4.84141e+6 
        7521.58      4.78207e+6 
        7585.61      4.72291e+6 
        7621.41      4.68993e+6 
        7649.65      4.66395e+6 
        7677.88      4.63803e+6 
        7734.35      4.58688e+6 
        7790.83      4.53593e+6 
         7847.3      4.48522e+6 
        7903.77      4.43477e+6 
        7958.24      4.38635e+6 
        7974.27      4.37222e+6 
         7990.3      4.35814e+6 
        8022.35      4.33006e+6 
        8082.55      4.27756e+6 
        8142.75      4.22572e+6 
        8200.85      4.17593e+6 
        8216.85      4.16236e+6 
        8232.84      4.14879e+6 
        8264.83      4.12177e+6 
        8289.72      4.10085e+6 
        8328.82      4.06805e+6 
        8343.44      4.05583e+6 
        8367.92      4.03544e+6 
        8388.68      4.01829e+6 
        8408.65      4.00182e+6 
        8432.02      3.98263e+6 
        8467.25      3.95382e+6 
        8502.48      3.92514e+6 
        8516.58       3.9137e+6 
        8530.98      3.90202e+6 
        8545.38      3.89049e+6 
        8574.18      3.86746e+6 
        8598.39      3.84817e+6 
         8628.6       3.8242e+6 
        8646.81      3.80981e+6 
        8665.01      3.79545e+6 
        8685.59       3.7793e+6 
        8701.43      3.76686e+6 
        8750.47      3.72857e+6 
        8767.92      3.71509e+6 
        8815.35      3.67846e+6 
        8862.78      3.64236e+6 
        8900.38      3.61412e+6 
        8957.65      3.57127e+6 
        9014.91      3.52854e+6 
        9044.62      3.50696e+6 
        9072.17      3.48679e+6 
        9099.72      3.46672e+6 
        9154.81      3.42723e+6 
         9190.8      3.40162e+6 
         9209.9      3.38802e+6 
        9229.01      3.37376e+6 
        9267.22      3.34778e+6 
         9303.2      3.32271e+6 
        9343.64      3.29471e+6 
        9384.08      3.26688e+6 
        9464.96      3.21237e+6 
        9545.72      3.15636e+6 
        9561.21      3.14813e+6 
        9576.69      3.13827e+6 
        9607.66      3.11813e+6 
        9668.45      3.07876e+6 
        9729.24       3.0402e+6 
        9790.04      3.00206e+6 
        9850.83      2.96435e+6 
        9870.42      2.95229e+6 
        9911.62      2.92707e+6 
        9952.82      2.90204e+6 
        10021.1      2.86106e+6 
        10035.2      2.85187e+6 
        10049.4       2.8384e+6 
        10077.7       2.8278e+6 
          10106      2.81159e+6 
        10162.5      2.77895e+6 
        10201.1      2.75688e+6 
        10219.1      2.74659e+6 
        10237.2      2.73634e+6 
        10273.3      2.71645e+6 
        10345.5      2.67707e+6 
        10417.8      2.63823e+6 
          10490      2.59999e+6 
        10562.2      2.56232e+6 
        10634.4      2.52518e+6 
        10706.7      2.48855e+6 
        10778.9      2.45243e+6 
        10851.1      2.41677e+6 
        10908.6        2.388e+6 
        10923.4       2.3789e+6 
        10934.4      2.36558e+6 
        10945.4      2.36442e+6 
        10956.5      2.36383e+6 
        10978.6      2.35482e+6 
          11008      2.34115e+6 
          11067      2.31352e+6 
        11125.9      2.28612e+6 
        11184.8      2.25904e+6 
        11226.5      2.24007e+6 
        11243.7      2.23229e+6 
        11260.9      2.22454e+6 
        11295.3      2.20979e+6 
        11364.1      2.18058e+6 
        11432.9      2.15176e+6 
        11501.7      2.12331e+6 
        11570.5      2.09523e+6 
        11639.2      2.06752e+6 
          11708      2.04019e+6 
        11776.8      2.01323e+6 
        11845.6      1.98663e+6 
        11914.4      1.96039e+6 
        11983.2      1.93451e+6 
          12052      1.90898e+6 
        12120.8       1.8838e+6 
        12189.6      1.85897e+6 
        12232.1      1.84379e+6 
        12258.3      1.83447e+6 
        12284.6      1.82521e+6 
        12337.2      1.80777e+6 
        12389.8      1.79051e+6 
        12442.3       1.7734e+6 
        12494.9      1.75645e+6 
        12547.4      1.73966e+6 
          12600      1.72302e+6 
        12652.6      1.70652e+6 
        12705.1      1.69008e+6 
        12731.4      1.68181e+6 
        12757.7       1.6733e+6 
        12770.8      1.66873e+6 
          12784       1.6635e+6 
        12797.1      1.65598e+6 
        12810.3      1.63668e+6 
        12820.5      1.61601e+6 
        12833.2      1.64114e+6 
        12848.8      1.64335e+6 
        12864.4       1.6404e+6 
        12895.7      1.63205e+6 
        12926.9      1.62306e+6 
        12958.1      1.61397e+6 
        13020.6       1.5958e+6 
          13083      1.57779e+6 
        13145.5      1.55998e+6 
          13208      1.54237e+6 
        13232.5       1.5355e+6 
        13270.4      1.52497e+6 
        13308.4       1.5145e+6 
        13384.2      1.49511e+6 
          13460      1.47596e+6 
        13535.8      1.45706e+6 
        13611.6      1.43839e+6 
        13687.5      1.41997e+6 
        13763.3      1.40177e+6 
        13839.1       1.3838e+6 
        13914.9      1.36607e+6 
        13990.8      1.34857e+6 
        14066.6      1.33131e+6 
        14142.4      1.31427e+6 
        14218.2      1.29746e+6 
        14256.1      1.28916e+6 
        14294.1      1.28087e+6 
        14332.1      1.27264e+6 
        14358.5      1.26716e+6 
        14408.1      1.25696e+6 
        14457.6      1.24684e+6 
        14530.3      1.23227e+6 
        14556.8      1.22701e+6 
        14581.2      1.22218e+6 
        14597.2       1.2191e+6 
