# Koester WD models
# teff = 6250 K (value for the effective temperature for the model. Temperatures are given in K)
# logg = 8.75 log(cm/s2) (value for Log(G) for the model.)
#
# column 1: WAVELENGTH (ANGSTROM), Wavelength in Angstrom
# column 2: FLUX (ERG/CM2/S/A), Flux in erg/cm2/s/A
         899.23        0.118256 
        909.241        0.158378 
        919.251        0.211481 
        929.261        0.285343 
        939.271        0.392687 
         949.28        0.476492 
        959.289        0.757972 
        969.297         1.03299 
        979.305         1.43937 
        989.312         1.91295 
        999.319         2.47257 
        1009.33         3.14228 
        1019.33         3.81402 
        1029.34         4.57281 
        1039.34         6.13493 
        1049.35         7.55776 
        1059.36         9.25551 
        1069.36         11.2476 
        1079.36         13.6546 
        1089.37         16.4355 
        1099.37         19.7718 
        1109.38         23.5992 
        1119.38         28.3051 
        1129.38         33.6864 
        1139.39         39.7025 
        1149.39         46.1934 
        1159.39         52.1734 
        1169.39         56.7714 
         1179.4         61.1627 
         1189.4         70.0641 
         1199.4         81.2604 
         1209.4         92.5642 
        1219.41         106.868 
        1229.41          129.95 
        1239.41         152.446 
        1249.41         176.886 
        1259.41         204.808 
        1269.41         240.332 
        1279.42         283.174 
        1289.42         329.044 
        1299.42         378.465 
        1309.42         433.951 
        1319.42           493.4 
        1329.42         562.267 
        1339.42          635.66 
        1349.42         716.999 
        1359.42         810.383 
        1369.42         908.772 
        1379.42         1016.54 
        1389.42         1138.22 
        1399.42          1272.6 
        1409.42         1415.05 
        1419.42         1570.73 
        1429.42          1740.6 
        1439.42          1924.2 
        1454.42          2240.5 
        1464.42         2475.28 
        1474.42         2717.74 
        1489.42         3098.84 
        1504.42         3537.97 
        1514.42         3897.08 
        1529.42          4494.3 
        1544.42         5105.47 
        1559.42         5659.52 
        1570.19         6095.07 
        1584.41         6756.28 
        1599.41         7556.38 
        1614.41         8568.82 
        1626.91         9683.08 
        1639.41         11096.7 
        1654.41         13118.5 
        1665.56         14790.8 
        1676.33         16508.7 
         1689.4         18789.6 
         1704.4         21732.6 
         1719.4         24749.5 
         1734.4         27978.9 
        1749.39         31228.7 
        1764.39         34531.4 
        1775.55           37177 
        1789.39         40925.2 
        1809.39         46633.2 
           1824         51152.7 
        1834.77         54702.7 
        1845.54         58392.8 
         1856.3         62479.1 
        1867.07         66683.4 
        1882.44         73213.2 
        1894.73         78871.3 
        1907.03         84899.3 
        1919.18         91253.8 
        1931.21         97709.8 
        1943.24          105188 
        1953.98          112169 
        1968.59          121526 
         1983.2          131473 
        1997.81          142216 
        2012.42          153684 
         2023.2          162948 
        2033.25          172119 
        2050.14          187174 
        2067.03          203229 
        2083.92          220916 
        2100.82          240038 
        2116.25          258704 
        2131.69          279079 
        2147.12          301337 
        2159.65          319704 
         2171.3          337492 
        2182.95          355886 
        2194.61          375043 
        2206.26          394986 
        2231.56          439254 
        2247.74          468518 
        2259.87          491194 
           2272          520307 
        2284.14          550055 
        2296.27          580965 
         2308.4          613877 
         2322.6          651249 
        2339.67          697716 
        2351.01          731356 
        2362.35          766973 
         2373.7          805457 
        2385.03          845541 
        2396.38          888534 
        2407.72          935441 
        2418.62          982888 
        2430.88      1.04377e+6 
        2443.54      1.10714e+6 
        2456.19      1.17351e+6 
        2474.59      1.29065e+6 
        2492.99       1.4136e+6 
        2510.01      1.53428e+6 
        2527.04      1.65207e+6 
        2543.14      1.76824e+6 
        2555.21      1.85841e+6 
        2567.28      1.96235e+6 
        2579.35      2.07592e+6 
        2591.43      2.19375e+6 
        2605.66      2.34062e+6 
        2618.66      2.47727e+6 
        2631.66      2.61644e+6 
        2644.67      2.76035e+6 
        2657.62      2.90833e+6 
        2670.42      3.02588e+6 
        2683.21      3.14448e+6 
        2708.81      3.38397e+6 
        2732.46       3.6078e+6 
        2756.11      3.83359e+6 
        2779.76      4.06978e+6 
        2803.41       4.3081e+6 
        2827.06      4.54812e+6 
        2846.87      4.75106e+6 
        2862.22      4.91348e+6 
        2877.57      5.08212e+6 
        2908.26        5.425e+6 
        2930.62      5.67711e+6 
        2952.98      5.93079e+6 
        2975.34      6.16066e+6 
         2997.7      6.39056e+6 
        3020.06       6.6204e+6 
        3033.42      6.75757e+6 
        3051.42      6.94229e+6 
        3069.42      7.14568e+6 
        3087.43      7.34891e+6 
        3123.43      7.75499e+6 
        3149.86      8.05168e+6 
         3202.7      8.66489e+6 
         3225.5      8.92731e+6 
         3236.9      9.05787e+6 
        3248.29        9.188e+6 
        3259.69       9.2754e+6 
        3271.09      9.36223e+6 
        3282.49      9.44847e+6 
        3293.89      9.53407e+6 
        3305.28      9.61905e+6 
        3316.68      9.70344e+6 
        3328.08      9.78716e+6 
        3339.48      9.87026e+6 
        3361.23       1.0025e+7 
        3390.24      1.02262e+7 
        3445.17      1.05951e+7 
        3456.59      1.06659e+7 
        3495.92      1.09041e+7 
         3543.6      1.11814e+7 
        3591.28      1.14364e+7 
        3635.88      1.16586e+7 
        3647.12      1.17126e+7 
        3658.96      1.17689e+7 
        3671.11      1.18251e+7 
        3682.58       1.1877e+7 
         3693.5      1.19252e+7 
        3703.57      1.19687e+7 
        3713.83      1.20121e+7 
        3724.38      1.20533e+7 
        3734.43      1.20869e+7 
        3744.62      1.21223e+7 
        3754.84      1.21561e+7 
        3765.07      1.21892e+7 
         3775.5      1.22223e+7 
        3786.22      1.22556e+7 
        3796.45      1.22854e+7 
        3807.84      1.23204e+7 
        3818.92      1.23527e+7 
        3830.45      1.23851e+7 
        3840.76      1.24148e+7 
        3851.98       1.2448e+7 
        3862.01      1.24756e+7 
        3872.59      1.25028e+7 
         3884.4      1.25201e+7 
        3894.46       1.2549e+7 
        3908.89      1.25994e+7 
        3923.89      1.26399e+7 
        3935.81      1.26699e+7 
        3946.58      1.26925e+7 
        3957.31      1.26995e+7 
        3967.38      1.26135e+7 
        3977.86      1.27193e+7 
        3988.87      1.27896e+7 
        4003.87      1.28336e+7 
        4018.86       1.2868e+7 
        4032.38       1.2896e+7 
        4043.86      1.29175e+7 
        4058.85      1.29411e+7 
        4073.85      1.29525e+7 
           4084      1.29346e+7 
        4095.68       1.2736e+7 
        4105.79      1.26402e+7 
        4116.69      1.29666e+7 
        4128.84      1.30402e+7 
        4143.83      1.30788e+7 
        4158.83      1.31047e+7 
        4173.82      1.31258e+7 
        4188.82      1.31441e+7 
        4203.81      1.31603e+7 
        4216.52      1.31729e+7 
        4228.81      1.31838e+7 
        4243.81      1.31953e+7 
         4258.8      1.32042e+7 
         4273.8        1.321e+7 
        4288.79      1.32099e+7 
        4303.79      1.31959e+7 
        4314.07      1.31619e+7 
        4326.14       1.3012e+7 
        4336.17      1.22909e+7 
        4346.17      1.24979e+7 
        4357.43      1.30788e+7 
        4367.98       1.3182e+7 
        4378.77      1.32181e+7 
        4393.77      1.32376e+7 
        4408.76      1.32429e+7 
        4423.76      1.32419e+7 
        4438.75      1.32383e+7 
        4453.75      1.32332e+7 
        4468.74      1.32269e+7 
        4483.74      1.32196e+7 
        4498.74      1.32124e+7 
        4513.73      1.32097e+7 
        4527.19      1.32061e+7 
        4538.73      1.32023e+7 
        4553.72      1.31963e+7 
        4568.72      1.31892e+7 
        4583.72      1.31811e+7 
        4596.53       1.3173e+7 
        4608.71       1.3164e+7 
         4623.7      1.31519e+7 
         4638.7      1.31391e+7 
         4653.7      1.31254e+7 
        4668.69       1.3111e+7 
        4683.69      1.30958e+7 
        4698.68      1.30793e+7 
        4713.68      1.30616e+7 
        4724.83      1.30478e+7 
        4738.67      1.30297e+7 
        4753.67      1.30085e+7 
        4768.67      1.29851e+7 
        4783.66      1.29579e+7 
        4798.66      1.29235e+7 
        4813.65      1.28732e+7 
        4828.65      1.27769e+7 
        4839.16      1.26166e+7 
        4850.22      1.20814e+7 
        4860.36      9.69829e+6 
        4870.86       1.1899e+7 
        4882.91       1.2549e+7 
        4893.63      1.26877e+7 
        4908.63      1.27422e+7 
         4921.7      1.27501e+7 
        4933.62      1.27455e+7 
        4948.62      1.27322e+7 
        4963.61      1.27145e+7 
        4978.61      1.26944e+7 
        4993.61      1.26727e+7 
         5008.6      1.26497e+7 
         5023.6      1.26258e+7 
        5038.59      1.26014e+7 
        5053.59      1.25764e+7 
        5068.59       1.2551e+7 
        5083.58      1.25251e+7 
        5098.58      1.24986e+7 
        5113.57      1.24718e+7 
        5128.57      1.24447e+7 
        5143.57      1.24172e+7 
        5158.56      1.23896e+7 
        5173.56      1.23617e+7 
        5188.55      1.23334e+7 
        5203.55      1.23049e+7 
        5218.55      1.22762e+7 
        5233.54      1.22473e+7 
        5248.54      1.22182e+7 
        5263.53      1.21889e+7 
        5278.53      1.21596e+7 
        5293.52      1.21307e+7 
        5308.52      1.21015e+7 
        5323.52      1.20721e+7 
        5338.51      1.20425e+7 
        5353.51      1.20127e+7 
        5368.51      1.19831e+7 
         5383.5      1.19523e+7 
         5398.5      1.19212e+7 
        5413.49        1.189e+7 
        5428.49      1.18586e+7 
        5443.48      1.18271e+7 
        5458.48      1.17955e+7 
        5473.48      1.17639e+7 
        5488.47      1.17326e+7 
        5503.47      1.17011e+7 
        5518.47      1.16694e+7 
        5533.46      1.16377e+7 
        5548.46      1.16058e+7 
        5563.45      1.15738e+7 
        5578.45      1.15418e+7 
        5593.44      1.15096e+7 
        5608.44      1.14773e+7 
        5623.44       1.1445e+7 
        5638.43      1.14125e+7 
        5653.43        1.138e+7 
        5668.43      1.13488e+7 
        5682.86      1.13173e+7 
        5693.42      1.12943e+7 
        5704.77      1.12694e+7 
        5715.23      1.12465e+7 
        5728.41      1.12176e+7 
         5743.4      1.11846e+7 
         5758.4      1.11516e+7 
         5773.4      1.11163e+7 
        5788.39      1.10831e+7 
        5803.39      1.10499e+7 
        5818.39      1.10166e+7 
        5833.38      1.09833e+7 
        5848.38      1.09499e+7 
        5863.37      1.09165e+7 
        5878.37      1.08831e+7 
        5893.36      1.08497e+7 
        5908.36      1.08162e+7 
        5923.36      1.07827e+7 
        5938.35      1.07491e+7 
        5953.35      1.07156e+7 
        5968.34      1.06819e+7 
        5983.34      1.06483e+7 
        5998.34      1.06147e+7 
        6013.33      1.05809e+7 
        6028.33      1.05472e+7 
        6043.32      1.05134e+7 
        6058.32      1.04797e+7 
        6073.32      1.04459e+7 
        6088.31      1.04121e+7 
        6103.31      1.03783e+7 
         6118.3      1.03444e+7 
         6133.3      1.03105e+7 
         6148.3      1.02767e+7 
        6163.29      1.02428e+7 
        6178.29      1.02088e+7 
        6193.28      1.01748e+7 
        6208.28      1.01407e+7 
        6223.28      1.01066e+7 
        6238.27      1.00724e+7 
        6252.16      1.00407e+7 
        6262.16      1.00178e+7 
        6273.26      9.99231e+6 
        6284.63      9.96614e+6 
        6295.99      9.93984e+6 
        6306.09      9.91637e+6 
        6316.22      9.89272e+6 
        6328.25      9.86444e+6 
        6343.24      9.82885e+6 
        6358.24      9.79275e+6 
        6373.23        9.756e+6 
        6388.23      9.71836e+6 
        6403.23      9.67944e+6 
        6418.22      9.63875e+6 
        6433.22      9.59543e+6 
        6448.22      9.54818e+6 
        6463.21      9.49468e+6 
        6478.21      9.43068e+6 
         6493.2        9.348e+6 
         6508.2      9.22903e+6 
        6523.19      9.03063e+6 
        6537.09      8.67196e+6 
        6548.06       8.0716e+6 
        6558.19      6.73136e+6 
        6568.39       6.9176e+6 
        6578.96      8.12677e+6 
        6588.98      8.59392e+6 
        6603.34      8.88753e+6 
        6613.66      8.98414e+6 
        6623.98      9.03597e+6 
         6634.3      9.06262e+6 
        6644.62      9.07411e+6 
        6660.33       9.0744e+6 
         6685.9      9.05137e+6 
        6711.48      9.01427e+6 
        6762.62      8.92354e+6 
        6802.75      8.84591e+6 
        6813.77      8.82417e+6 
        6824.78      8.80227e+6 
        6846.81      8.75851e+6 
        6890.86      8.67026e+6 
        6978.98      8.49301e+6 
        7025.03      8.40065e+6 
        7067.09      8.31661e+6 
        7109.15      8.23301e+6 
        7193.26      8.06852e+6 
        7277.38      7.90607e+6 
        7329.48      7.80657e+6 
         7361.5      7.74585e+6 
        7393.51      7.68638e+6 
        7457.55      7.56747e+6 
        7521.58      7.44997e+6 
        7585.61      7.33389e+6 
        7621.41      7.26961e+6 
        7649.65      7.21922e+6 
        7677.88      7.16915e+6 
        7734.35      7.07063e+6 
        7790.83      6.97324e+6 
         7847.3      6.87695e+6 
        7903.77      6.78179e+6 
        7958.24      6.69109e+6 
        7974.27      6.66473e+6 
         7990.3      6.63847e+6 
        8022.35      6.58625e+6 
        8082.55      6.48915e+6 
        8142.75      6.39364e+6 
        8200.85      6.30266e+6 
        8216.85      6.27791e+6 
        8232.84      6.25325e+6 
        8264.83      6.20421e+6 
        8289.72      6.16632e+6 
        8328.82      6.10719e+6 
        8343.44       6.0852e+6 
        8367.92      6.04857e+6 
        8388.68      6.01781e+6 
        8408.65      5.98835e+6 
        8432.02      5.95407e+6 
        8467.25      5.90271e+6 
        8502.48      5.85178e+6 
        8516.58      5.83152e+6 
        8530.98      5.81088e+6 
        8545.38      5.79043e+6 
        8574.18      5.74977e+6 
        8598.39      5.71578e+6 
         8628.6      5.67368e+6 
        8646.81      5.64843e+6 
        8665.01      5.62329e+6 
        8685.59      5.59502e+6 
        8701.43      5.57334e+6 
        8750.47      5.50674e+6 
        8767.92      5.48324e+6 
        8815.35      5.41984e+6 
        8862.78      5.35758e+6 
        8900.38      5.30885e+6 
        8957.65      5.23537e+6 
        9014.91      5.16274e+6 
        9044.62       5.1257e+6 
        9072.17      5.09142e+6 
        9099.72       5.0574e+6 
        9154.81      4.99058e+6 
         9190.8      4.94738e+6 
         9209.9      4.92457e+6 
        9229.01      4.90158e+6 
        9267.22      4.85693e+6 
         9303.2      4.81493e+6 
        9343.64      4.76815e+6 
        9384.08      4.72188e+6 
        9464.96      4.63134e+6 
        9545.72      4.54164e+6 
        9561.21      4.52565e+6 
        9576.69       4.5091e+6 
        9607.66      4.47598e+6 
        9668.45      4.41155e+6 
        9729.24       4.3485e+6 
        9790.04      4.28642e+6 
        9850.83      4.22522e+6 
        9870.42      4.20571e+6 
        9911.62      4.16494e+6 
        9952.82       4.1245e+6 
        10021.1      4.05806e+6 
        10035.2      4.04376e+6 
        10049.4      4.02821e+6 
        10077.7      4.00471e+6 
        10134.2      3.95313e+6 
        10144.5      3.94374e+6 
        10190.8      3.90142e+6 
        10237.2      3.85951e+6 
        10329.9      3.77871e+6 
        10422.6       3.6997e+6 
        10515.3      3.62235e+6 
          10608       3.5468e+6 
        10700.7      3.47284e+6 
        10793.4       3.4004e+6 
        10834.1      3.36886e+6 
        10886.1      3.32792e+6 
        10912.1      3.30546e+6 
        10925.1      3.29264e+6 
        10938.1      3.27737e+6 
        10951.1      3.27338e+6 
        10964.1      3.26691e+6 
        10977.1      3.25918e+6 
        10990.1      3.25073e+6 
        11016.1      3.23279e+6 
          11068      3.19588e+6 
          11120      3.15897e+6 
          11172      3.12239e+6 
          11187      3.11189e+6 
          11224      3.08624e+6 
        11260.9      3.06082e+6 
        11334.8      3.01233e+6 
        11408.7      2.96466e+6 
        11482.5      2.91783e+6 
        11556.4      2.87178e+6 
        11630.3      2.82652e+6 
        11704.2      2.78205e+6 
        11778.1      2.73835e+6 
        11851.9      2.69542e+6 
        11925.8      2.65321e+6 
        11999.7      2.61173e+6 
        12073.6       2.5709e+6 
        12147.5      2.53085e+6 
          12158      2.52516e+6 
        12221.3      2.49149e+6 
        12284.6      2.45831e+6 
        12347.9      2.42688e+6 
        12411.2      2.39587e+6 
        12474.5      2.36528e+6 
        12537.8      2.33505e+6 
        12601.1      2.30511e+6 
        12664.4      2.27516e+6 
          12696      2.25989e+6 
        12727.7      2.24394e+6 
        12759.3      2.22578e+6 
        12777.4      2.21264e+6 
          12791      2.19983e+6 
        12804.5      2.18291e+6 
        12814.7      2.16841e+6 
        12824.8       2.1673e+6 
          12835      2.17261e+6 
        12845.1        2.176e+6 
          12857      2.17694e+6 
        12870.5      2.17537e+6 
        12897.6      2.16803e+6 
        12924.7      2.15832e+6 
        12951.8      2.14773e+6 
        13005.9      2.12566e+6 
        13060.1      2.10332e+6 
        13114.3      2.08105e+6 
        13168.4      2.05897e+6 
        13222.6       2.0371e+6 
        13245.2      2.02806e+6 
        13276.8      2.01547e+6 
        13308.4      2.00298e+6 
        13371.5      1.97938e+6 
        13434.7      1.95606e+6 
        13497.9      1.93303e+6 
          13561      1.91029e+6 
        13624.2       1.8879e+6 
        13687.4      1.86571e+6 
        13750.5       1.8438e+6 
        13813.7      1.82218e+6 
        13876.9      1.80084e+6 
          13940      1.77977e+6 
        14003.2      1.75897e+6 
        14066.4      1.73843e+6 
        14129.5      1.71817e+6 
        14192.7      1.69816e+6 
        14255.9      1.67841e+6 
          14306      1.66291e+6 
          14319      1.65891e+6 
        14332.1      1.65491e+6 
        14358.2      1.64714e+6 
        14410.4      1.63172e+6 
        14457.6      1.61789e+6 
        14521.1      1.59959e+6 
        14552.2      1.59074e+6 
        14581.2       1.5825e+6 
        14597.2      1.57803e+6 
        14613.2      1.57359e+6 
