# Koester WD models
# teff = 6500 K (value for the effective temperature for the model. Temperatures are given in K)
# logg = 7.75 log(cm/s2) (value for Log(G) for the model.)
#
# column 1: WAVELENGTH (ANGSTROM), Wavelength in Angstrom
# column 2: FLUX (ERG/CM2/S/A), Flux in erg/cm2/s/A
         899.23        0.164426 
        909.241        0.219418 
        919.251        0.306422 
        929.261        0.414769 
        939.271        0.670564 
         949.28        0.651208 
        959.289         1.57423 
        969.297         2.15557 
        979.305         3.09888 
        989.312         4.16591 
        999.319         5.42921 
        1009.33         6.91053 
        1019.33         8.10525 
        1029.34         9.40653 
        1039.34         13.6289 
        1049.35         16.8438 
        1059.36         20.5413 
        1069.36         24.8619 
        1079.36         30.0084 
        1089.37         35.8927 
        1099.37         42.8962 
        1109.38         50.8143 
        1119.38         60.5897 
        1129.38         71.6195 
        1139.39         83.6983 
        1149.39         96.3756 
        1159.39         107.352 
        1169.39         114.392 
         1179.4         115.731 
         1189.4         125.609 
         1199.4         141.282 
         1209.4         146.377 
        1219.41         163.756 
        1229.41         233.009 
        1239.41         279.469 
        1249.41         325.438 
        1259.41         378.075 
        1269.41         449.854 
        1279.42         535.224 
        1289.42         622.299 
        1299.42         714.555 
        1309.42          816.94 
        1319.42         924.885 
        1329.42         1050.94 
        1339.42         1182.68 
        1349.42         1328.27 
        1359.42         1495.74 
        1369.42         1670.38 
        1379.42         1859.71 
        1389.42         2073.17 
        1399.42         2310.57 
        1409.42         2558.94 
        1419.42         2825.27 
        1429.42         3115.15 
        1439.42         3431.47 
        1454.42         3979.39 
        1464.42         4377.68 
        1474.42         4778.24 
        1489.42         5407.97 
        1501.92         5999.63 
        1514.42         6754.02 
        1529.42         7754.08 
        1544.42         8752.07 
        1559.42         9593.67 
        1570.19         10258.8 
        1584.41         11262.4 
        1599.41         12492.4 
        1611.91         13837.1 
        1624.41         15651.2 
        1639.41         18492.5 
        1654.41           21991 
        1665.56         25057.5 
        1676.33         28403.3 
         1686.9         32236.2 
         1699.4         37962.7 
         1714.4         45787.8 
         1729.4         54999.9 
         1744.4         64783.4 
        1759.39           73179 
         1771.7         80108.4 
        1781.89         87398.8 
        1794.39         98295.7 
        1809.39          110738 
           1824          124226 
        1834.77          134867 
        1845.54          145956 
         1856.3          161298 
        1867.07          176111 
        1881.59          196824 
        1893.79          216656 
           1906          238395 
        1917.04          259939 
         1927.5          280772 
        1937.52          315878 
        1947.54          341365 
        1958.58          381235 
        1968.59          409343 
        1978.63          439041 
        1990.11          475358 
        2001.59          514524 
        2013.07          556791 
        2023.74          609079 
        2034.42          666143 
        2048.65          726085 
        2067.03          810182 
        2085.41          905470 
        2103.79      1.01046e+6 
        2116.25      1.08711e+6 
        2127.16      1.15813e+6 
        2138.07      1.26018e+6 
        2150.54      1.34996e+6 
           2163      1.43923e+6 
         2180.3      1.56803e+6 
        2200.08      1.72529e+6 
         2214.7      1.84943e+6 
        2229.31      1.97402e+6 
        2243.93      2.10395e+6 
        2255.86      2.21451e+6 
         2266.6       2.3614e+6 
        2277.34      2.50171e+6 
        2293.45      2.69583e+6 
        2308.21      2.88268e+6 
        2322.98      3.05619e+6 
        2342.66      3.28252e+6 
         2362.3      3.51934e+6 
         2375.1      3.67252e+6 
         2387.9      3.82948e+6 
        2398.59      3.96438e+6 
        2409.27       4.1016e+6 
        2419.96      4.24533e+6 
        2430.65      4.42625e+6 
        2441.34      4.56081e+6 
        2451.59      4.69125e+6 
        2465.39      4.88241e+6 
        2475.96      5.02821e+6 
        2492.99      5.26701e+6 
        2510.01      5.51274e+6 
        2527.04      5.73953e+6 
        2544.07      5.96959e+6 
        2559.23      6.17731e+6 
         2574.4      6.41246e+6 
        2589.56      6.65059e+6 
        2604.73      6.92077e+6 
        2619.89      7.17574e+6 
        2635.06      7.40345e+6 
        2650.22      7.63284e+6 
        2665.11       7.8384e+6 
        2678.36       8.0033e+6 
        2717.23      8.48582e+6 
        2756.11      8.96516e+6 
        2813.18      9.65788e+6 
        2833.86      9.90915e+6 
        2854.55      1.01605e+7 
        2875.23      1.03866e+7 
        2895.92       1.0611e+7 
        2921.59      1.08862e+7 
        2937.29      1.10523e+7 
        2952.98       1.1217e+7 
        2980.12      1.14768e+7 
        3015.77      1.18099e+7 
        3051.42      1.21333e+7 
        3095.58      1.25251e+7 
        3122.72      1.27624e+7 
        3149.86      1.29807e+7 
        3159.97      1.30572e+7 
        3204.13      1.33818e+7 
        3248.29      1.36908e+7 
        3292.45      1.39342e+7 
         3326.5      1.41112e+7 
        3336.62       1.4162e+7 
        3346.73      1.42121e+7 
        3366.96      1.43079e+7 
        3407.42      1.44902e+7 
        3445.17      1.46492e+7 
        3497.73      1.48432e+7 
        3520.67      1.49179e+7 
         3543.6      1.49889e+7 
        3587.66       1.5112e+7 
        3602.15      1.51491e+7 
        3616.63      1.51849e+7 
        3635.88      1.52305e+7 
        3647.12      1.52553e+7 
        3658.96      1.52813e+7 
        3671.11      1.53067e+7 
        3682.58      1.53298e+7 
         3693.5      1.53514e+7 
        3703.57      1.53686e+7 
        3713.83      1.53892e+7 
        3724.38      1.54076e+7 
        3734.43      1.53944e+7 
        3744.62      1.54404e+7 
        3754.84      1.54575e+7 
        3765.07      1.54733e+7 
         3775.5       1.5494e+7 
        3786.22      1.55201e+7 
        3796.45       1.5422e+7 
        3807.84      1.55755e+7 
        3818.92       1.5608e+7 
        3830.45      1.55201e+7 
        3840.76      1.55568e+7 
        3851.98      1.57031e+7 
        3862.01       1.5737e+7 
        3872.59      1.57336e+7 
        3883.67      1.54887e+7 
        3893.69      1.54187e+7 
        3903.89      1.57836e+7 
        3918.89      1.58638e+7 
        3929.56      1.58832e+7 
        3940.04      1.58886e+7 
        3950.65      1.58611e+7 
        3962.28      1.55787e+7 
        3972.48      1.44655e+7 
        3984.18      1.58209e+7 
        3996.36      1.59349e+7 
        4008.87      1.59638e+7 
        4023.86       1.5977e+7 
         4035.9      1.59818e+7 
        4048.86      1.59821e+7 
        4063.85       1.5972e+7 
        4075.42      1.59412e+7 
         4085.7      1.58389e+7 
        4096.24      1.50692e+7 
        4106.25      1.47484e+7 
        4116.69      1.58021e+7 
        4128.84      1.59377e+7 
        4143.83      1.59684e+7 
        4158.83      1.59723e+7 
        4173.82       1.5969e+7 
        4188.82      1.59625e+7 
        4203.81       1.5954e+7 
        4216.52      1.59455e+7 
        4228.81      1.59362e+7 
        4243.81      1.59232e+7 
         4258.8      1.59082e+7 
         4273.8      1.58902e+7 
        4288.79       1.5866e+7 
        4303.79      1.58263e+7 
        4314.07      1.57695e+7 
        4326.14      1.55438e+7 
        4336.17      1.40173e+7 
        4346.74      1.46419e+7 
        4357.43      1.55843e+7 
        4367.98      1.57131e+7 
        4378.77       1.5742e+7 
        4393.77      1.57437e+7 
        4408.76      1.57312e+7 
        4423.76      1.57133e+7 
        4438.75      1.56929e+7 
        4453.75       1.5671e+7 
        4468.74       1.5648e+7 
        4483.74      1.56241e+7 
        4498.74      1.56192e+7 
        4513.73      1.55939e+7 
        4527.19      1.55705e+7 
        4538.73      1.55501e+7 
        4553.72       1.5523e+7 
        4568.72      1.54952e+7 
        4583.72      1.54669e+7 
        4596.53      1.54422e+7 
        4608.71      1.54183e+7 
         4623.7      1.53882e+7 
         4638.7      1.53577e+7 
         4653.7      1.53266e+7 
        4668.69       1.5295e+7 
        4683.69      1.52629e+7 
        4698.68      1.52301e+7 
        4713.68      1.51966e+7 
        4724.83      1.51713e+7 
        4738.67      1.51391e+7 
        4753.67      1.51031e+7 
        4768.67      1.50655e+7 
        4783.66      1.50251e+7 
        4798.66      1.49791e+7 
        4813.65      1.49203e+7 
        4828.65      1.48223e+7 
        4839.16      1.46665e+7 
        4850.22      1.40803e+7 
        4860.28       8.5079e+6 
         4870.5      1.37619e+7 
        4882.91      1.45518e+7 
        4893.63      1.46681e+7 
        4908.63       1.4696e+7 
         4921.7      1.46858e+7 
        4933.62      1.46669e+7 
        4948.62      1.46371e+7 
        4963.61       1.4604e+7 
        4978.61      1.45691e+7 
        4993.61       1.4533e+7 
         5008.6      1.44961e+7 
         5023.6      1.44585e+7 
        5038.59      1.44205e+7 
        5053.59      1.43821e+7 
        5068.59      1.43434e+7 
        5083.58      1.43044e+7 
        5098.58      1.42652e+7 
        5113.57      1.42257e+7 
        5128.57      1.41861e+7 
        5143.57      1.41462e+7 
        5158.56      1.41062e+7 
        5173.56       1.4066e+7 
        5188.55      1.40257e+7 
        5203.55      1.39853e+7 
        5218.55      1.39447e+7 
        5233.54      1.39039e+7 
        5248.54      1.38631e+7 
        5263.53      1.38221e+7 
        5278.53      1.37811e+7 
        5293.52      1.37401e+7 
        5308.52      1.36989e+7 
        5323.52      1.36577e+7 
        5338.51      1.36164e+7 
        5353.51      1.35749e+7 
        5368.51      1.35338e+7 
         5383.5       1.3492e+7 
         5398.5      1.34503e+7 
        5413.49      1.34084e+7 
        5428.49      1.33665e+7 
        5443.48      1.33245e+7 
        5458.48      1.32825e+7 
        5473.48      1.32405e+7 
        5488.47      1.31985e+7 
        5503.47      1.31564e+7 
        5518.47      1.31144e+7 
        5533.46      1.30722e+7 
        5548.46      1.30301e+7 
        5563.45      1.29879e+7 
        5578.45      1.29457e+7 
        5593.44      1.29035e+7 
        5608.44      1.28613e+7 
        5623.44      1.28191e+7 
        5638.43      1.27769e+7 
        5653.43      1.27346e+7 
        5668.43      1.26929e+7 
        5682.86      1.26522e+7 
        5693.42      1.26225e+7 
        5704.77      1.25905e+7 
        5715.23       1.2561e+7 
        5728.41       1.2524e+7 
         5743.4      1.24817e+7 
         5758.4      1.24396e+7 
         5773.4      1.23964e+7 
        5788.39      1.23543e+7 
        5803.39      1.23123e+7 
        5818.39      1.22703e+7 
        5833.38      1.22283e+7 
        5848.38      1.21864e+7 
        5863.37      1.21445e+7 
        5878.37      1.21026e+7 
        5893.36      1.20608e+7 
        5908.36       1.2019e+7 
        5923.36      1.19773e+7 
        5938.35      1.19356e+7 
        5953.35      1.18939e+7 
        5968.34      1.18523e+7 
        5983.34      1.18107e+7 
        5998.34      1.17692e+7 
        6013.33      1.17276e+7 
        6028.33      1.16862e+7 
        6043.32      1.16447e+7 
        6058.32      1.16033e+7 
        6073.32       1.1562e+7 
        6088.31      1.15207e+7 
        6103.31      1.14795e+7 
         6118.3      1.14383e+7 
         6133.3      1.13972e+7 
         6148.3      1.13561e+7 
        6163.29      1.13151e+7 
        6178.29      1.12741e+7 
        6193.28      1.12332e+7 
        6208.28      1.11923e+7 
        6223.28      1.11515e+7 
        6238.27      1.11107e+7 
        6252.16      1.10729e+7 
        6262.16      1.10457e+7 
        6273.26      1.10154e+7 
        6284.63      1.09845e+7 
        6295.99      1.09535e+7 
        6306.09       1.0926e+7 
        6316.22      1.08984e+7 
        6328.25      1.08655e+7 
        6343.24      1.08244e+7 
        6358.24       1.0783e+7 
        6373.23      1.07414e+7 
        6388.23      1.06993e+7 
        6403.23      1.06566e+7 
        6418.22      1.06129e+7 
        6433.22      1.05678e+7 
        6448.22      1.05204e+7 
        6463.21      1.04693e+7 
        6478.21      1.04117e+7 
         6493.2       1.0342e+7 
         6508.2      1.02468e+7 
        6523.19      1.00898e+7 
        6537.09      9.78273e+6 
        6548.06      9.16868e+6 
        6558.19      7.28278e+6 
        6568.27      7.57105e+6 
        6579.94      9.28796e+6 
        6590.04      9.70469e+6 
        6603.34      9.90566e+6 
        6613.66      9.96475e+6 
        6623.98      9.98835e+6 
         6634.3       9.9935e+6 
        6654.94      9.97676e+6 
        6675.58       9.9432e+6 
        6711.48      9.86931e+6 
        6741.75      9.80108e+6 
        6783.26      9.70407e+6 
        6824.78      9.60555e+6 
        6907.81      9.40932e+6 
        6990.84      9.21448e+6 
         7038.6      9.10349e+6 
        7073.87      9.02206e+6 
        7109.15      8.94116e+6 
        7179.69      8.78245e+6 
        7250.24      8.62584e+6 
        7320.78      8.47143e+6 
        7389.14      8.32444e+6 
        7406.65      8.28724e+6 
        7424.15      8.25029e+6 
        7459.17      8.17678e+6 
         7529.2      8.03145e+6 
        7599.23      7.88835e+6 
        7660.63       7.7647e+6 
        7677.88      7.73027e+6 
        7695.14      7.69627e+6 
        7729.65      7.62873e+6 
        7798.67      7.49518e+6 
        7867.69      7.36377e+6 
        7911.17      7.28202e+6 
        7936.71      7.23443e+6 
        7962.25      7.18712e+6 
        8013.32      7.09394e+6 
        8046.24       7.0345e+6 
         8064.4      7.00192e+6 
        8082.55      6.96947e+6 
        8118.86      6.90525e+6 
        8180.09      6.79819e+6 
        8191.47      6.77846e+6 
        8202.85      6.75882e+6 
        8216.85      6.73479e+6 
        8232.84      6.70749e+6 
        8264.83      6.65314e+6 
        8289.72      6.61117e+6 
        8328.82      6.54573e+6 
        8343.44      6.52141e+6 
        8367.92      6.48092e+6 
        8388.68      6.44693e+6 
        8408.65      6.41444e+6 
        8432.02      6.37658e+6 
        8467.25      6.31991e+6 
        8502.48      6.26371e+6 
        8516.58      6.24143e+6 
        8530.98      6.21872e+6 
        8545.38      6.19613e+6 
        8574.18      6.15152e+6 
        8598.39      6.11398e+6 
         8628.6      6.06792e+6 
        8646.81      6.04018e+6 
        8665.01      6.01216e+6 
        8685.59      5.98156e+6 
        8701.43      5.95778e+6 
        8750.47      5.88379e+6 
        8767.92      5.85894e+6 
        8815.35      5.78945e+6 
        8862.78      5.71933e+6 
        8900.38      5.66828e+6 
        8957.65      5.58808e+6 
        9014.91      5.50325e+6 
        9044.62      5.46829e+6 
        9072.17      5.43125e+6 
        9099.72      5.39424e+6 
        9154.81      5.32151e+6 
         9190.8      5.27404e+6 
         9209.9       5.2479e+6 
        9229.01      5.21005e+6 
        9248.11      5.19877e+6 
        9267.22      5.17587e+6 
        9305.43      5.12818e+6 
        9379.63      5.03578e+6 
        9397.45      5.01395e+6 
        9415.28      4.99224e+6 
        9450.94      4.94901e+6 
        9498.52      4.89105e+6 
        9510.38       4.8761e+6 
        9522.24      4.86008e+6 
         9534.1      4.84044e+6 
        9544.48      4.80871e+6 
        9554.86      4.81283e+6 
        9565.24      4.80786e+6 
        9580.06      4.79388e+6 
        9591.92      4.78119e+6 
        9615.64      4.75467e+6 
        9657.72      4.70689e+6 
        9668.45      4.69473e+6 
        9679.18      4.68267e+6 
        9700.64      4.65867e+6 
        9743.57      4.61098e+6 
        9829.42      4.51708e+6 
        9877.71      4.46508e+6 
        9915.26      4.42496e+6 
        9952.82      4.38504e+6 
        10006.5      4.32685e+6 
        10017.2      4.31378e+6 
        10027.9       4.2983e+6 
        10038.6      4.27417e+6 
        10048.7       4.2114e+6 
        10058.7       4.2501e+6 
        10069.5       4.2545e+6 
        10085.5      4.24511e+6 
          10107      4.22651e+6 
        10149.8      4.18545e+6 
        10233.9      4.10377e+6 
          10247      4.09136e+6 
        10260.1      4.07908e+6 
        10286.3       4.0546e+6 
        10338.7       4.0061e+6 
        10391.1      3.95822e+6 
        10443.5      3.91091e+6 
        10495.9      3.86419e+6 
        10548.3       3.8181e+6 
        10600.7      3.77258e+6 
        10653.1      3.72763e+6 
        10705.5      3.68323e+6 
        10757.9      3.63928e+6 
        10810.3      3.59568e+6 
        10862.7      3.55141e+6 
        10892.1      3.52392e+6 
        10903.6       3.5107e+6 
        10915.1       3.4926e+6 
        10926.6      3.45698e+6 
        10936.6      3.35199e+6 
        10949.2      3.43565e+6 
        10965.2      3.45541e+6 
          10978      3.45308e+6 
        10990.8      3.44661e+6 
        11016.4      3.42955e+6 
        11067.6       3.3916e+6 
        11118.8      3.35299e+6 
          11170      3.31466e+6 
        11181.4      3.30615e+6 
        11221.2      3.27678e+6 
        11260.9      3.24762e+6 
        11340.4      3.19255e+6 
        11419.9      3.13848e+6 
        11499.4      3.08542e+6 
        11578.9      3.03329e+6 
        11658.4      2.98212e+6 
        11737.9       2.9319e+6 
        11817.4      2.88261e+6 
        11896.9      2.83423e+6 
        11976.4      2.78675e+6 
        12055.9      2.74008e+6 
        12135.4      2.69433e+6 
        12214.9      2.64943e+6 
        12284.6      2.61075e+6 
        12354.3      2.57448e+6 
        12424.1      2.53873e+6 
        12493.8      2.50346e+6 
        12563.5      2.46859e+6 
        12633.2      2.43392e+6 
        12668.1      2.41643e+6 
        12702.9      2.39841e+6 
        12727.2      2.38497e+6 
        12737.8      2.37861e+6 
        12749.9      2.37054e+6 
        12761.3      2.36178e+6 
        12772.6       2.3507e+6 
          12784        2.335e+6 
        12795.4      2.30799e+6 
        12806.7      2.24547e+6 
        12817.4      2.02843e+6 
        12827.6       2.2167e+6 
          12839      2.27809e+6 
        12850.4      2.29837e+6 
        12867.4      2.30708e+6 
        12878.7      2.30718e+6 
        12901.5      2.30215e+6 
        12924.2      2.29422e+6 
        12969.6      2.27564e+6 
        13060.4      2.23619e+6 
        13151.2      2.19671e+6 
        13175.8      2.18612e+6 
        13242.1      2.15781e+6 
        13308.4      2.12986e+6 
        13374.6      2.10371e+6 
        13440.9      2.07788e+6 
        13507.2      2.05238e+6 
        13573.4       2.0272e+6 
        13639.7      2.00239e+6 
          13706      1.97783e+6 
        13772.2       1.9536e+6 
        13838.5      1.92969e+6 
        13904.8      1.90609e+6 
          13971       1.8828e+6 
        14037.3      1.85983e+6 
        14103.6      1.83715e+6 
