# Koester WD models
# teff = 6750 K (value for the effective temperature for the model. Temperatures are given in K)
# logg = 7.75 log(cm/s2) (value for Log(G) for the model.)
#
# column 1: WAVELENGTH (ANGSTROM), Wavelength in Angstrom
# column 2: FLUX (ERG/CM2/S/A), Flux in erg/cm2/s/A
         899.23        0.339493 
        909.241        0.449439 
        919.251        0.634561 
        929.261        0.856062 
        939.271         1.46913 
         949.28          1.2944 
        959.289         3.78028 
        969.297         5.14304 
        979.305          7.5151 
        989.312         10.1352 
        999.319         13.1941 
        1009.33         16.6973 
        1019.33         18.9609 
        1029.34         21.5358 
        1039.34         32.5972 
        1049.35         40.3497 
        1059.36         48.9331 
        1069.36         58.9633 
        1079.36         70.6978 
        1089.37         84.0244 
        1099.37         99.7038 
        1109.38         117.195 
        1119.38         138.805 
        1129.38         162.878 
        1139.39         188.673 
        1149.39         215.038 
        1159.39         236.592 
        1169.39         248.609 
         1179.4         244.757 
         1189.4         258.809 
         1199.4         286.039 
         1209.4         283.639 
        1219.41         311.104 
        1229.41         472.131 
        1239.41         569.857 
        1249.41          661.82 
        1259.41         767.783 
        1269.41         914.464 
        1279.42         1087.66 
        1289.42         1259.99 
        1299.42         1441.58 
        1309.42         1640.36 
        1319.42         1847.79 
        1329.42         2090.92 
        1339.42         2341.41 
        1349.42         2616.51 
        1359.42         2932.85 
        1369.42          3261.1 
        1379.42         3611.45 
        1389.42         4005.91 
        1399.42         4449.31 
        1409.42         4907.61 
        1419.42         5385.82 
        1429.42         5904.94 
        1439.42         6481.42 
        1454.42         7484.44 
        1464.42         8192.05 
        1474.42         8882.63 
        1489.42         9983.92 
        1501.92         11027.8 
        1514.42         12381.7 
        1529.42         14126.4 
        1544.42         15833.2 
        1559.42         17190.9 
        1570.19         18299.7 
        1584.41         19946.7 
        1599.41         21989.6 
        1611.91         24281.5 
        1624.41         27432.1 
        1639.41         32373.5 
        1654.41         38546.7 
        1665.56         44121.8 
        1676.33         50353.4 
         1686.9         57831.1 
         1699.4           70148 
         1711.9         85848.4 
         1724.4          105695 
         1739.4          133347 
        1751.89          153824 
        1764.39          170948 
        1775.55          187938 
        1785.64          210888 
        1799.39          242060 
        1814.38          275207 
        1829.38          311745 
        1840.15          339945 
        1850.25          369514 
        1860.34          418247 
         1873.6          463511 
        1883.96          504182 
        1897.78          563627 
         1911.6          629534 
        1924.49          695134 
        1934.74          765411 
        1944.77          861880 
        1956.51          975867 
        1968.59      1.05962e+6 
        1979.09      1.13606e+6 
        1989.59      1.21682e+6 
        2000.08      1.30273e+6 
        2013.38      1.41855e+6 
        2024.46      1.55641e+6 
        2035.07      1.69151e+6 
        2051.05      1.84501e+6 
        2067.03       2.0079e+6 
        2083.01      2.18479e+6 
        2098.99      2.37167e+6 
         2113.7      2.55282e+6 
        2123.92      2.68413e+6 
        2134.14      2.85642e+6 
        2144.36      3.03329e+6 
        2159.69      3.23845e+6 
        2177.04      3.47752e+6 
        2200.17      3.81034e+6 
         2214.7      4.02934e+6 
        2229.22      4.24699e+6 
        2252.64      4.61066e+6 
        2263.91      4.84035e+6 
        2275.18       5.1049e+6 
         2294.9      5.46672e+6 
        2313.13      5.81232e+6 
        2331.37      6.11759e+6 
         2349.6      6.42993e+6 
        2362.35      6.65232e+6 
         2384.2      7.02422e+6 
        2397.54      7.25488e+6 
        2409.27      7.45868e+6 
           2421      7.67642e+6 
        2432.73      7.93331e+6 
        2444.46      8.12391e+6 
        2456.19      8.31482e+6 
        2466.76      8.50024e+6 
        2488.39      8.86806e+6 
        2510.01      9.24618e+6 
        2531.64      9.59546e+6 
         2547.3      9.84858e+6 
        2559.23      1.00413e+7 
        2571.17      1.02494e+7 
        2595.04      1.06663e+7 
        2627.89       1.1287e+7 
        2642.78      1.15258e+7 
        2657.67      1.17643e+7 
        2672.56      1.19674e+7 
        2687.45      1.21694e+7 
        2717.24      1.25678e+7 
        2756.11      1.30776e+7 
        2813.16      1.37948e+7 
        2833.85      1.40522e+7 
        2854.55      1.43098e+7 
        2875.24      1.45329e+7 
        2895.93      1.47518e+7 
        2921.65      1.50179e+7 
        2937.32      1.51767e+7 
        2952.98      1.53333e+7 
        2984.31      1.56205e+7 
        3042.53      1.61267e+7 
        3060.31      1.62744e+7 
         3077.5      1.64139e+7 
        3113.68      1.66996e+7 
        3149.86      1.69651e+7 
        3186.04       1.7198e+7 
        3196.14      1.72607e+7 
        3222.22      1.74181e+7 
        3248.29      1.75688e+7 
        3300.45      1.78139e+7 
        3346.73      1.80101e+7 
        3433.42      1.83203e+7 
        3445.17      1.83573e+7 
        3456.92      1.83921e+7 
        3480.41      1.84581e+7 
        3511.22      1.85324e+7 
        3527.41      1.85675e+7 
         3543.6      1.86004e+7 
        3560.69      1.86324e+7 
        3575.99      1.86592e+7 
        3591.28      1.86841e+7 
        3604.78      1.87044e+7 
        3621.87      1.87284e+7 
        3635.88      1.87466e+7 
        3647.12      1.87593e+7 
        3658.96      1.87727e+7 
        3671.11      1.87851e+7 
        3682.58      1.87958e+7 
         3693.5      1.88062e+7 
        3703.57      1.88105e+7 
        3713.83      1.88229e+7 
        3724.38      1.88309e+7 
        3734.43      1.87785e+7 
        3744.62      1.88466e+7 
        3754.84      1.88574e+7 
        3765.07      1.88639e+7 
         3775.5      1.88819e+7 
        3786.22      1.89131e+7 
        3796.45      1.86762e+7 
        3807.84      1.89734e+7 
        3818.92      1.90185e+7 
        3830.45      1.87951e+7 
        3840.76      1.88333e+7 
        3851.98       1.9132e+7 
        3862.01      1.91819e+7 
        3872.59      1.91438e+7 
        3883.67      1.86305e+7 
        3894.29      1.85669e+7 
        3905.58      1.92041e+7 
        3916.16      1.93035e+7 
        3928.22      1.93314e+7 
        3938.89      1.93261e+7 
        3950.65      1.92458e+7 
        3961.37      1.87841e+7 
        3971.57      1.60458e+7 
        3982.23      1.90134e+7 
        3992.62      1.92901e+7 
        4003.87      1.93533e+7 
        4018.86      1.93682e+7 
        4032.38      1.93647e+7 
        4043.86      1.93551e+7 
        4058.85      1.93296e+7 
        4073.85      1.92582e+7 
         4085.7      1.90411e+7 
        4096.23      1.77327e+7 
        4106.25       1.7196e+7 
        4116.69      1.89465e+7 
        4128.84      1.91897e+7 
        4143.83      1.92361e+7 
        4158.83      1.92318e+7 
        4173.82      1.92152e+7 
        4188.82      1.91938e+7 
        4203.81      1.91698e+7 
        4216.52      1.91478e+7 
        4228.81      1.91253e+7 
        4243.81      1.90958e+7 
         4258.8      1.90634e+7 
         4273.8      1.90267e+7 
        4288.79      1.89803e+7 
        4303.79      1.89078e+7 
        4314.07      1.88086e+7 
        4326.14      1.84283e+7 
        4336.17      1.61795e+7 
        4346.43       1.6904e+7 
        4357.43      1.84864e+7 
        4367.98      1.87006e+7 
        4378.77      1.87474e+7 
        4393.77      1.87478e+7 
        4408.76      1.87251e+7 
        4423.76       1.8694e+7 
        4438.75      1.86592e+7 
        4453.75      1.86223e+7 
        4468.74      1.85841e+7 
        4483.74      1.85449e+7 
        4498.74      1.85355e+7 
        4513.73      1.84939e+7 
        4527.19      1.84561e+7 
        4538.73      1.84232e+7 
        4553.72        1.838e+7 
        4568.72      1.83362e+7 
        4583.72      1.82919e+7 
        4596.53      1.82536e+7 
        4608.71      1.82169e+7 
         4623.7      1.81711e+7 
         4638.7      1.81249e+7 
         4653.7       1.8078e+7 
        4668.69      1.80307e+7 
        4683.69      1.79828e+7 
        4698.68      1.79342e+7 
        4713.68       1.7885e+7 
        4724.83      1.78478e+7 
        4738.67      1.78008e+7 
        4753.67      1.77485e+7 
        4768.67      1.76939e+7 
        4783.66      1.76354e+7 
        4798.66      1.75689e+7 
        4813.65      1.74834e+7 
        4828.65      1.73395e+7 
        4839.16      1.71108e+7 
        4850.22      1.62787e+7 
        4860.28      9.33625e+6 
         4870.5      1.58287e+7 
        4882.91      1.69472e+7 
        4893.63       1.7121e+7 
        4908.63      1.71656e+7 
         4921.7      1.71531e+7 
        4933.62      1.71274e+7 
        4948.62      1.70863e+7 
        4963.61      1.70405e+7 
        4978.61      1.69922e+7 
        4993.61      1.69425e+7 
         5008.6      1.68917e+7 
         5023.6      1.68402e+7 
        5038.59      1.67882e+7 
        5053.59      1.67358e+7 
        5068.59      1.66832e+7 
        5083.58      1.66303e+7 
        5098.58      1.65772e+7 
        5113.57       1.6524e+7 
        5128.57      1.64706e+7 
        5143.57      1.64171e+7 
        5158.56      1.63635e+7 
        5173.56      1.63098e+7 
        5188.55       1.6256e+7 
        5203.55      1.62021e+7 
        5218.55      1.61482e+7 
        5233.54      1.60942e+7 
        5248.54      1.60401e+7 
        5263.53       1.5986e+7 
        5278.53      1.59318e+7 
        5293.52      1.58777e+7 
        5308.52      1.58236e+7 
        5323.52      1.57694e+7 
        5338.51      1.57152e+7 
        5353.51       1.5661e+7 
        5368.51      1.56072e+7 
         5383.5      1.55529e+7 
         5398.5      1.54985e+7 
        5413.49      1.54443e+7 
        5428.49      1.53899e+7 
        5443.48      1.53357e+7 
        5458.48      1.52814e+7 
        5473.48      1.52272e+7 
        5488.47       1.5173e+7 
        5503.47      1.51189e+7 
        5518.47      1.50648e+7 
        5533.46      1.50108e+7 
        5548.46      1.49568e+7 
        5563.45      1.49028e+7 
        5578.45      1.48489e+7 
        5593.44       1.4795e+7 
        5608.44      1.47412e+7 
        5623.44      1.46875e+7 
        5638.43      1.46338e+7 
        5653.43      1.45802e+7 
        5668.43      1.45271e+7 
        5682.86      1.44756e+7 
        5693.42       1.4438e+7 
        5704.77      1.43976e+7 
        5715.23      1.43604e+7 
        5728.41      1.43136e+7 
         5743.4      1.42604e+7 
         5758.4      1.42073e+7 
         5773.4      1.41527e+7 
        5788.39      1.40998e+7 
        5803.39      1.40469e+7 
        5818.39      1.39941e+7 
        5833.38      1.39415e+7 
        5848.38       1.3889e+7 
        5863.37      1.38365e+7 
        5878.37      1.37842e+7 
        5893.36       1.3732e+7 
        5908.36      1.36798e+7 
        5923.36      1.36278e+7 
        5938.35      1.35759e+7 
        5953.35      1.35241e+7 
        5968.34      1.34723e+7 
        5983.34      1.34208e+7 
        5998.34      1.33693e+7 
        6013.33      1.33178e+7 
        6028.33      1.32665e+7 
        6043.32      1.32152e+7 
        6058.32      1.31641e+7 
        6073.32      1.31131e+7 
        6088.31      1.30622e+7 
        6103.31      1.30114e+7 
         6118.3      1.29607e+7 
         6133.3      1.29102e+7 
         6148.3      1.28597e+7 
        6163.29      1.28094e+7 
        6178.29      1.27591e+7 
        6193.28       1.2709e+7 
        6208.28      1.26589e+7 
        6223.28      1.26089e+7 
        6238.27       1.2559e+7 
        6252.16      1.25128e+7 
        6262.16      1.24796e+7 
        6273.26      1.24427e+7 
        6284.63       1.2405e+7 
        6295.99      1.23673e+7 
        6306.09      1.23338e+7 
        6316.22      1.23001e+7 
        6328.25        1.226e+7 
        6343.24        1.221e+7 
        6358.24      1.21597e+7 
        6373.23       1.2109e+7 
        6388.23      1.20578e+7 
        6403.23      1.20059e+7 
        6418.22      1.19527e+7 
        6433.22      1.18977e+7 
        6448.22      1.18398e+7 
        6463.21      1.17772e+7 
        6478.21      1.17063e+7 
         6493.2        1.162e+7 
         6508.2      1.15014e+7 
        6523.19      1.13051e+7 
        6537.09      1.09218e+7 
        6548.06      1.01737e+7 
        6558.19      7.97245e+6 
        6568.58      8.39427e+6 
        6579.13      1.02475e+7 
        6590.04      1.08292e+7 
        6603.34      1.10847e+7 
        6613.66      1.11616e+7 
        6623.98      1.11936e+7 
         6634.3      1.12023e+7 
        6644.62      1.11977e+7 
        6665.26      1.11675e+7 
         6685.9      1.11233e+7 
        6701.62      1.10849e+7 
        6721.34      1.10338e+7 
         6736.2      1.09939e+7 
        6780.49      1.08714e+7 
        6824.78      1.07467e+7 
        6913.35      1.04986e+7 
        7001.93      1.02532e+7 
        7071.86      1.00623e+7 
         7090.5      1.00119e+7 
        7109.15      9.96168e+6 
        7146.44      9.86278e+6 
        7221.02       9.6674e+6 
         7295.6      9.47529e+6 
        7346.84      9.34526e+6 
        7370.18      9.28718e+6 
        7393.51      9.22877e+6 
        7440.19      9.11404e+6 
        7533.55      8.88848e+6 
        7575.92      8.78779e+6 
         7626.9      8.66806e+6 
        7677.88      8.54988e+6 
        7728.86       8.4343e+6 
        7779.84      8.32019e+6 
        7830.82      8.20757e+6 
         7881.8      8.09642e+6 
        7903.32      8.04992e+6 
        7932.78      7.98671e+6 
        7962.25      7.92394e+6 
        8021.18       7.8007e+6 
        8077.68       7.6843e+6 
        8097.18      7.64463e+6 
        8108.49      7.62172e+6 
        8155.67      7.52697e+6 
        8200.85      7.43734e+6 
        8216.85      7.40596e+6 
        8232.84      7.37476e+6 
        8264.83      7.31275e+6 
        8289.72       7.2649e+6 
        8328.82      7.19029e+6 
        8343.44      7.16261e+6 
        8367.92      7.11649e+6 
        8388.68      7.07779e+6 
        8408.65      7.04081e+6 
        8432.02      6.99774e+6 
        8467.25      6.93331e+6 
        8502.48      6.86944e+6 
        8516.58      6.84421e+6 
        8530.98      6.81839e+6 
        8545.38      6.79266e+6 
        8574.18      6.74223e+6 
        8598.39      6.69941e+6 
         8628.6      6.64748e+6 
        8646.81      6.61607e+6 
        8665.01      6.58387e+6 
        8685.59      6.54972e+6 
        8701.43      6.52283e+6 
        8750.47       6.4381e+6 
        8767.92      6.41102e+6 
        8815.35      6.33254e+6 
        8862.78      6.25098e+6 
        8900.38      6.19601e+6 
        8957.65      6.10569e+6 
        9014.91      6.00443e+6 
        9044.62      5.97063e+6 
        9072.17      5.92938e+6 
        9099.72      5.88797e+6 
        9154.81       5.8062e+6 
         9190.8      5.75219e+6 
         9209.9      5.72163e+6 
        9224.23      5.69087e+6 
        9236.17      5.67692e+6 
        9248.11      5.66633e+6 
        9262.44      5.64833e+6 
        9281.55       5.6226e+6 
        9319.76      5.56967e+6 
        9384.08      5.48038e+6 
        9448.41       5.3927e+6 
        9479.49       5.3501e+6 
        9496.11      5.32673e+6 
        9512.73      5.30191e+6 
        9529.35      5.27216e+6 
        9541.81       5.2311e+6 
         9552.2      5.22456e+6 
        9568.82      5.22353e+6 
        9585.43       5.2075e+6 
        9618.67      5.16808e+6 
        9668.45      5.10562e+6 
        9768.01      4.98241e+6 
        9782.33      4.96491e+6 
        9867.57      4.86205e+6 
         9910.2      4.81122e+6 
        9952.82      4.76039e+6 
        9974.13      4.73476e+6 
        9995.44      4.70802e+6 
        10016.8       4.6773e+6 
        10026.8      4.65873e+6 
        10038.1      4.62581e+6 
        10048.7      4.52217e+6 
        10060.3      4.59731e+6 
        10080.1      4.60338e+6 
        10091.4      4.59615e+6 
        10102.7      4.58663e+6 
        10125.3      4.56448e+6 
        10170.5      4.51673e+6 
        10237.2      4.44529e+6 
        10303.9       4.3763e+6 
        10370.6      4.30838e+6 
        10437.3      4.24156e+6 
          10504      4.17577e+6 
        10570.7      4.11118e+6 
        10637.4       4.0476e+6 
        10704.1      3.98498e+6 
        10770.8      3.92316e+6 
        10837.5      3.86108e+6 
        10870.4       3.8285e+6 
        10887.3      3.80924e+6 
        10904.2      3.78433e+6 
        10916.9      3.75439e+6 
        10927.5      3.70271e+6 
        10937.6      3.50222e+6 
        10948.1      3.67488e+6 
        10960.8      3.71509e+6 
        10973.5      3.72285e+6 
        10990.5      3.71864e+6 
        11007.4      3.70856e+6 
        11041.3      3.68311e+6 
          11109      3.62775e+6 
        11176.7      3.57209e+6 
          11228      3.53036e+6 
        11244.5      3.51711e+6 
        11260.9      3.50388e+6 
        11293.8      3.47869e+6 
        11359.5      3.42883e+6 
        11425.3      3.37976e+6 
          11491      3.33147e+6 
        11556.7      3.28388e+6 
        11622.5      3.23707e+6 
        11688.2      3.19095e+6 
          11754      3.14558e+6 
        11819.7      3.10092e+6 
        11885.5      3.05696e+6 
        11951.2       3.0137e+6 
        12016.9      2.97112e+6 
        12082.7      2.92913e+6 
        12148.4      2.88787e+6 
        12214.2      2.84724e+6 
        12275.2       2.8101e+6 
        12294.1      2.79895e+6 
          12313      2.78809e+6 
        12350.8      2.76651e+6 
        12426.5      2.72381e+6 
        12502.1      2.68171e+6 
        12577.8      2.64006e+6 
        12653.5      2.59825e+6 
        12691.3      2.57651e+6 
        12710.2      2.56493e+6 
        12729.1      2.55228e+6 
          12748      2.53741e+6 
        12766.9      2.51736e+6 
        12785.9      2.48259e+6 
          12800      2.42493e+6 
        12810.7      2.30897e+6 
        12820.9      2.17929e+6 
        12832.9      2.37682e+6 
        12846.5      2.43557e+6 
        12860.1      2.45674e+6 
        12878.3      2.46458e+6 
        12896.5      2.46327e+6 
        12914.7      2.45826e+6 
        12951.1      2.44402e+6 
        12987.5      2.42771e+6 
        13023.9      2.41075e+6 
        13096.7      2.37634e+6 
        13169.5      2.34213e+6 
        13242.3      2.30839e+6 
        13308.4      2.27819e+6 
        13374.4      2.24985e+6 
        13440.5      2.22187e+6 
        13506.5      2.19425e+6 
        13572.6        2.167e+6 
        13638.6      2.14018e+6 
        13704.7      2.11364e+6 
        13770.7      2.08745e+6 
        13836.8      2.06164e+6 
        13902.8      2.03618e+6 
        13968.9      2.01105e+6 
        14034.9      1.98626e+6 
          14101       1.9618e+6 
          14167      1.93767e+6 
        14233.1      1.91386e+6 
        14266.2      1.90204e+6 
        14299.1      1.89037e+6 
        14332.1      1.87877e+6 
