# Koester WD models
# teff = 6750 K (value for the effective temperature for the model. Temperatures are given in K)
# logg = 7 log(cm/s2) (value for Log(G) for the model.)
#
# column 1: WAVELENGTH (ANGSTROM), Wavelength in Angstrom
# column 2: FLUX (ERG/CM2/S/A), Flux in erg/cm2/s/A
         899.23        0.225601 
        909.241        0.300008 
        919.251        0.583105 
        929.261        0.772222 
        939.271          1.2757 
         949.28        0.948714 
        959.289         3.39685 
        969.297         4.68999 
        979.305         6.88405 
        989.312         9.27027 
        999.319         12.0871 
        1009.33           15.36 
        1019.33         17.6876 
        1029.34         20.1191 
        1039.34         30.7427 
        1049.35         38.4185 
        1059.36         46.8295 
        1069.36         56.7865 
        1079.36         68.3227 
        1089.37         81.5309 
        1099.37         96.9737 
        1109.38         114.199 
        1119.38         135.457 
        1129.38         159.141 
        1139.39         184.508 
        1149.39         210.448 
        1159.39         232.069 
        1169.39         245.438 
         1179.4         239.089 
         1189.4         246.503 
         1199.4         268.193 
         1209.4         249.154 
        1219.41         267.795 
        1229.41         454.705 
        1239.41         556.558 
        1249.41         648.613 
        1259.41         754.686 
        1269.41         902.966 
        1279.42         1074.65 
        1289.42         1244.09 
        1299.42         1422.38 
        1309.42         1617.58 
        1319.42            1822 
        1329.42         2060.73 
        1339.42         2307.72 
        1349.42         2579.03 
        1359.42         2890.22 
        1369.42          3214.1 
        1379.42         3560.34 
        1389.42         3949.42 
        1399.42         4385.91 
        1409.42         4838.62 
        1419.42         5312.28 
        1429.42         5826.74 
        1439.42         6396.88 
        1454.42         7385.41 
        1464.42         8084.76 
        1474.42          8771.3 
        1489.42         9867.33 
        1501.92         10903.7 
        1514.42         12235.4 
        1529.42         13955.4 
        1544.42         15648.4 
        1559.42         17024.8 
        1570.19         18135.7 
        1584.41           19775 
        1599.41           21798 
        1611.91         24074.6 
        1624.41         27186.3 
        1639.41         31995.6 
        1651.91         37008.3 
        1664.41         43420.6 
        1676.33         51230.6 
         1687.1         60929.6 
        1698.05         77793.4 
        1708.62          103835 
         1719.4          140242 
        1731.11          193824 
         1741.9          244852 
        1753.14          286067 
        1764.39          317197 
        1775.55          352556 
        1787.07          414254 
        1797.43          463573 
        1811.15          525277 
        1826.82          603120 
        1838.74          666124 
        1849.66          728831 
        1860.58          844149 
        1877.35          956725 
        1891.77        1.065e+6 
        1906.18      1.18355e+6 
        1919.37      1.30129e+6 
        1929.84      1.40004e+6 
        1939.93      1.61888e+6 
        1950.03      1.81627e+6 
        1963.48      1.96806e+6 
         1978.8      2.15041e+6 
        1989.01      2.27738e+6 
        1999.22      2.40952e+6 
        2013.16      2.59771e+6 
        2023.62      2.79167e+6 
        2034.08      3.00139e+6 
        2044.53      3.14341e+6 
        2067.03      3.46235e+6 
        2080.24      3.65908e+6 
        2093.44      3.86108e+6 
        2104.85      4.03993e+6 
        2116.25      4.22258e+6 
        2127.66      4.40806e+6 
        2139.07      4.69288e+6 
        2150.47      4.87459e+6 
        2161.88      5.05589e+6 
        2172.66      5.22843e+6 
        2187.04      5.46232e+6 
         2214.7      5.92341e+6 
           2227      6.12887e+6 
         2239.3      6.33606e+6 
        2251.61       6.5456e+6 
        2263.91      6.80755e+6 
        2276.22      7.08131e+6 
        2288.52      7.29145e+6 
        2300.83      7.50354e+6 
        2313.13      7.71679e+6 
        2337.75      8.11552e+6 
        2362.35       8.5162e+6 
        2409.27      9.26757e+6 
        2451.59       9.9678e+6 
        2466.76       1.0192e+7 
        2488.39      1.05092e+7 
        2510.01       1.0834e+7 
         2547.3      1.13543e+7 
        2559.23      1.15188e+7 
        2571.17      1.16863e+7 
        2595.04      1.20184e+7 
        2627.89      1.25003e+7 
        2642.78      1.26859e+7 
        2657.67      1.28698e+7 
        2678.36      1.31048e+7 
        2717.24      1.35351e+7 
        2756.11      1.39507e+7 
        2813.16      1.45258e+7 
        2833.85      1.47289e+7 
        2854.55      1.49301e+7 
        2895.93      1.52776e+7 
        2921.65      1.54847e+7 
        2937.32      1.56075e+7 
        2952.98      1.57279e+7 
        2984.31      1.59535e+7 
        3042.53      1.63461e+7 
        3060.31      1.64587e+7 
         3077.5       1.6564e+7 
        3113.68      1.67774e+7 
        3149.86      1.69734e+7 
        3196.14       1.7192e+7 
        3222.22      1.73067e+7 
        3248.29      1.74152e+7 
        3300.45      1.76044e+7 
        3346.73      1.77528e+7 
        3433.42      1.79815e+7 
        3445.17       1.8008e+7 
        3456.92      1.80328e+7 
        3480.41      1.80794e+7 
        3511.22      1.81312e+7 
        3527.41       1.8155e+7 
         3543.6       1.8177e+7 
        3560.69      1.81978e+7 
        3575.99      1.82147e+7 
        3591.28      1.82299e+7 
        3604.78      1.82419e+7 
        3621.87      1.82556e+7 
        3635.88      1.82654e+7 
        3647.12      1.82715e+7 
        3658.96       1.8278e+7 
        3671.11      1.82837e+7 
        3682.58      1.82864e+7 
        3693.33      1.82948e+7 
        3703.35      1.82865e+7 
        3713.53      1.83062e+7 
        3723.81      1.83167e+7 
        3733.86      1.81714e+7 
        3744.62      1.83738e+7 
        3754.84      1.84176e+7 
        3765.07       1.8417e+7 
        3775.29      1.84389e+7 
        3785.37      1.86577e+7 
        3795.44      1.79537e+7 
        3806.47      1.86923e+7 
        3816.64      1.89071e+7 
         3826.8      1.86604e+7 
        3836.91      1.67818e+7 
        3847.23      1.89193e+7 
         3857.3      1.91219e+7 
        3867.68      1.91309e+7 
        3877.92      1.88638e+7 
        3887.94      1.51502e+7 
         3898.6      1.87489e+7 
        3908.89      1.91888e+7 
        3920.39      1.92665e+7 
         3930.9       1.9277e+7 
        3941.96       1.9252e+7 
        3952.78      1.91135e+7 
         3963.2      1.81908e+7 
        3973.33      1.65053e+7 
        3985.32      1.90352e+7 
        3997.82      1.92376e+7 
        4008.87      1.92653e+7 
        4019.17      1.92658e+7 
        4032.38      1.92557e+7 
        4043.86      1.92415e+7 
        4058.85      1.92112e+7 
        4073.85      1.91356e+7 
         4085.7      1.89112e+7 
        4095.81      1.75742e+7 
         4106.3      1.68636e+7 
        4116.69      1.88176e+7 
        4128.84      1.90487e+7 
        4143.83      1.90846e+7 
        4158.83      1.90724e+7 
        4173.82      1.90494e+7 
        4188.82      1.90225e+7 
        4203.81      1.89937e+7 
        4216.52      1.89679e+7 
        4228.81      1.89419e+7 
        4243.81      1.89086e+7 
         4258.8       1.8873e+7 
         4273.8      1.88338e+7 
        4288.79      1.87867e+7 
        4303.79      1.87174e+7 
        4314.07      1.86265e+7 
        4326.14      1.82767e+7 
        4336.17      1.60207e+7 
        4346.43      1.68241e+7 
        4357.43      1.83276e+7 
        4367.98      1.85073e+7 
        4378.77      1.85398e+7 
        4393.77      1.85302e+7 
        4408.76      1.85016e+7 
        4423.76      1.84664e+7 
        4438.75       1.8428e+7 
        4453.75      1.83887e+7 
        4468.74      1.83483e+7 
        4483.74      1.83071e+7 
        4498.74      1.82841e+7 
        4513.73      1.82408e+7 
        4527.19      1.82015e+7 
        4538.73      1.81676e+7 
        4553.72       1.8123e+7 
        4568.72       1.8078e+7 
        4583.72      1.80326e+7 
        4596.53      1.79934e+7 
        4608.71       1.7956e+7 
         4623.7      1.79094e+7 
         4638.7      1.78625e+7 
         4653.7      1.78152e+7 
        4668.69      1.77675e+7 
        4683.69      1.77193e+7 
        4698.68      1.76707e+7 
        4713.68      1.76216e+7 
        4724.83      1.75846e+7 
        4738.67      1.75381e+7 
        4753.67      1.74867e+7 
        4768.67      1.74337e+7 
        4783.66      1.73779e+7 
        4798.66      1.73163e+7 
        4813.65      1.72407e+7 
        4828.65       1.7121e+7 
        4839.16      1.69367e+7 
        4850.22      1.62481e+7 
        4860.28      9.25978e+6 
        4870.86      1.59358e+7 
        4881.73      1.67519e+7 
        4893.21      1.69017e+7 
        4903.63      1.69243e+7 
        4915.55      1.69132e+7 
        4928.62       1.6884e+7 
        4943.62      1.68415e+7 
        4958.61      1.67947e+7 
        4973.61      1.67459e+7 
        4988.61      1.66958e+7 
         5003.6      1.66448e+7 
         5018.6      1.65933e+7 
         5033.6      1.65413e+7 
        5048.59      1.64891e+7 
        5063.59      1.64367e+7 
        5078.58       1.6384e+7 
        5093.58      1.63313e+7 
        5108.57      1.62784e+7 
        5123.57      1.62254e+7 
        5138.57      1.61723e+7 
        5153.56      1.61192e+7 
        5168.56      1.60659e+7 
        5183.56      1.60126e+7 
        5198.55      1.59593e+7 
        5213.55      1.59059e+7 
        5228.54      1.58524e+7 
        5243.54      1.57989e+7 
        5258.53      1.57454e+7 
        5273.53      1.56918e+7 
        5288.53      1.56383e+7 
        5303.52      1.55847e+7 
        5318.52      1.55311e+7 
        5333.52      1.54774e+7 
        5348.51      1.54237e+7 
        5363.51      1.53702e+7 
         5378.5      1.53165e+7 
         5393.5      1.52628e+7 
        5408.49      1.52092e+7 
        5423.49      1.51555e+7 
        5438.49      1.51019e+7 
        5453.48      1.50483e+7 
        5468.48      1.49947e+7 
        5483.48      1.49412e+7 
        5498.47      1.48877e+7 
        5513.47      1.48343e+7 
        5528.46      1.47809e+7 
        5543.46      1.47276e+7 
        5558.45      1.46743e+7 
        5573.45      1.46211e+7 
        5588.45      1.45679e+7 
        5603.44      1.45148e+7 
        5618.44      1.44618e+7 
        5633.43      1.44088e+7 
        5648.43      1.43559e+7 
        5663.43      1.43031e+7 
        5673.98       1.4266e+7 
         5686.2       1.4223e+7 
        5698.42      1.41801e+7 
        5708.88      1.41434e+7 
        5723.41      1.40926e+7 
        5738.41      1.40401e+7 
         5753.4      1.39878e+7 
         5768.4      1.39347e+7 
        5783.39      1.38825e+7 
        5798.39      1.38304e+7 
        5813.39      1.37784e+7 
        5828.38      1.37265e+7 
        5843.38      1.36747e+7 
        5858.37       1.3623e+7 
        5873.37      1.35715e+7 
        5888.37        1.352e+7 
        5903.36      1.34686e+7 
        5918.36      1.34173e+7 
        5933.35      1.33662e+7 
        5948.35      1.33151e+7 
        5963.35      1.32642e+7 
        5978.34      1.32134e+7 
        5993.34      1.31626e+7 
        6008.33       1.3112e+7 
        6023.33      1.30614e+7 
        6038.32       1.3011e+7 
        6053.32      1.29607e+7 
        6068.32      1.29105e+7 
        6083.31      1.28604e+7 
        6098.31      1.28105e+7 
        6113.31      1.27606e+7 
         6128.3      1.27109e+7 
         6143.3      1.26614e+7 
        6158.29      1.26119e+7 
        6173.29      1.25625e+7 
        6188.28      1.25133e+7 
        6203.28      1.24642e+7 
        6218.28      1.24152e+7 
        6233.27      1.23663e+7 
        6244.38      1.23301e+7 
        6256.04      1.22922e+7 
        6266.59       1.2258e+7 
        6278.26      1.22201e+7 
        6290.52      1.21804e+7 
        6302.31      1.21422e+7 
        6312.59       1.2109e+7 
        6323.25      1.20745e+7 
        6338.24       1.2026e+7 
        6353.24      1.19774e+7 
        6368.24      1.19287e+7 
        6383.23      1.18798e+7 
        6398.23      1.18306e+7 
        6413.22      1.17808e+7 
        6428.22      1.17301e+7 
        6443.22      1.16781e+7 
        6458.21      1.16236e+7 
        6473.21       1.1565e+7 
         6488.2      1.14987e+7 
         6503.2      1.14166e+7 
         6518.2      1.12968e+7 
        6532.67      1.10767e+7 
        6543.19      1.07017e+7 
        6553.84      9.53455e+6 
        6564.04      6.29544e+6 
        6574.79      9.97471e+6 
           6586      1.07396e+7 
        6598.17      1.09734e+7 
         6608.5        1.104e+7 
        6623.98      1.10638e+7 
         6634.3      1.10578e+7 
        6644.62      1.10434e+7 
        6665.26      1.10015e+7 
        6701.62      1.09101e+7 
        6721.34      1.08569e+7 
         6736.2      1.08161e+7 
        6780.49      1.06928e+7 
        6824.78      1.05687e+7 
        6913.35      1.03235e+7 
        7001.93      1.00819e+7 
        7071.86      9.89407e+6 
         7090.5      9.84449e+6 
        7109.15      9.79508e+6 
        7146.44      9.69791e+6 
        7221.02      9.50596e+6 
         7295.6      9.31727e+6 
        7346.84      9.18954e+6 
        7370.18      9.13223e+6 
        7393.51      9.07487e+6 
        7440.19       8.9623e+6 
        7533.55      8.74092e+6 
        7575.92      8.64211e+6 
         7626.9      8.52462e+6 
        7677.88       8.4086e+6 
        7728.86      8.29522e+6 
        7779.84      8.18331e+6 
        7830.82      8.07282e+6 
         7881.8      7.96375e+6 
        7903.32      7.91816e+6 
        7932.78      7.85612e+6 
        7962.25      7.79454e+6 
        8021.18      7.67365e+6 
        8077.68      7.55946e+6 
        8097.18      7.52056e+6 
        8108.49       7.4981e+6 
        8155.67      7.40517e+6 
        8200.85      7.31724e+6 
        8216.85      7.28648e+6 
        8232.84      7.25589e+6 
        8264.83       7.1951e+6 
        8289.72      7.14813e+6 
        8328.82      7.07499e+6 
        8343.44      7.04782e+6 
        8367.92      7.00258e+6 
        8388.68      6.96466e+6 
        8408.65      6.92841e+6 
        8432.02      6.88621e+6 
        8467.25      6.82269e+6 
        8502.48       6.7598e+6 
        8516.58       6.7357e+6 
        8530.98      6.71038e+6 
        8545.38      6.68408e+6 
        8574.18      6.63614e+6 
        8598.39      6.59191e+6 
         8628.6      6.54375e+6 
        8646.81      6.51293e+6 
        8665.01      6.47636e+6 
        8701.43      6.42204e+6 
        8725.22       6.3823e+6 
        8737.85      6.36063e+6 
        8750.47      6.32783e+6 
        8775.71      6.29977e+6 
        8786.57      6.28249e+6 
        8800.96      6.25934e+6 
        8815.35      6.23594e+6 
        8825.48      6.21951e+6 
        8844.13      6.18818e+6 
        8858.12      6.15894e+6 
        8869.78      6.14338e+6 
        8881.43      6.12975e+6 
        8892.49      6.11407e+6 
         8916.4      6.07838e+6 
         8953.7      6.02099e+6 
           8969      5.99673e+6 
        8984.31      5.97138e+6 
        8999.61       5.9432e+6 
        9011.08      5.90974e+6 
         9021.6      5.90145e+6 
        9035.95      5.89083e+6 
        9051.25      5.87189e+6 
        9063.99      5.85448e+6 
        9081.85      5.82913e+6 
        9099.72      5.80324e+6 
        9135.44      5.75135e+6 
        9184.77       5.6772e+6 
        9195.83       5.6587e+6 
        9206.89      5.63784e+6 
        9217.95      5.61057e+6 
        9228.96      5.50363e+6 
        9240.16      5.57812e+6 
        9262.55      5.56439e+6 
        9288.14      5.53366e+6 
        9339.33      5.46505e+6 
        9384.08      5.40432e+6 
        9401.22      5.38136e+6 
        9437.41      5.33295e+6 
         9455.5      5.30863e+6 
        9473.59        5.284e+6 
        9491.69      5.25843e+6 
        9509.78      5.22978e+6 
        9523.35      5.20197e+6 
        9534.66       5.1655e+6 
        9544.83      5.03349e+6 
        9559.25      5.13679e+6 
        9577.34      5.13927e+6 
        9595.44      5.12381e+6 
        9613.53      5.10355e+6 
        9631.62       5.0819e+6 
        9667.17      5.03827e+6 
        9677.44       5.0257e+6 
         9687.7      5.01317e+6 
        9708.24      4.98813e+6 
        9749.32      4.93836e+6 
        9831.47      4.84025e+6 
        9874.41      4.78973e+6 
        9913.61      4.74384e+6 
        9952.82      4.69781e+6 
        9972.42       4.6745e+6 
        9992.02      4.64993e+6 
        10011.6      4.62097e+6 
        10022.2      4.59973e+6 
        10035.8      4.55107e+6 
          10046      4.42958e+6 
        10056.7      4.47916e+6 
        10072.7      4.53605e+6 
        10091.9      4.53429e+6 
        10104.7      4.52477e+6 
        10130.3      4.50043e+6 
        10181.5      4.44721e+6 
        10228.1       4.3981e+6 
        10246.2      4.37938e+6 
        10264.3      4.36097e+6 
        10300.5      4.32434e+6 
        10372.9      4.25205e+6 
        10445.2      4.18096e+6 
        10517.6      4.11118e+6 
          10590      4.04266e+6 
        10662.3      3.97531e+6 
        10734.7      3.90902e+6 
        10807.1       3.8433e+6 
        10820.8       3.8308e+6 
        10850.1       3.8034e+6 
        10864.8      3.78892e+6 
        10879.4      3.77315e+6 
        10894.1      3.75417e+6 
        10908.8      3.72618e+6 
        10919.8      3.68612e+6 
        10929.8       3.5942e+6 
        10940.1      3.36257e+6 
        10950.2      3.61318e+6 
        10963.1      3.66825e+6 
        10977.7      3.67837e+6 
        10992.4      3.67438e+6 
        11007.1       3.6658e+6 
        11036.4      3.64425e+6 
        11095.1      3.59719e+6 
        11153.7      3.54959e+6 
        11163.9      3.54139e+6 
        11212.4       3.5024e+6 
        11260.9      3.46386e+6 
        11357.9      3.39122e+6 
          11455      3.32026e+6 
          11552      3.25086e+6 
        11649.1        3.183e+6 
        11746.1       3.1167e+6 
        11843.1      3.05192e+6 
        11940.2      2.98864e+6 
        12037.2       2.9268e+6 
        12134.2      2.86642e+6 
        12177.9       2.8397e+6 
        12231.3      2.80745e+6 
        12284.6       2.7756e+6 
          12338      2.74562e+6 
        12391.3      2.71596e+6 
        12444.7      2.68664e+6 
        12498.1      2.65762e+6 
        12551.4      2.62886e+6 
        12604.8      2.60044e+6 
        12658.1      2.57179e+6 
        12711.5      2.54146e+6 
        12738.2      2.52365e+6 
        12751.5      2.51281e+6 
        12764.8      2.49904e+6 
        12778.1      2.47891e+6 
        12791.4      2.44299e+6 
        12802.3      2.38017e+6 
        12812.7      2.20339e+6 
        12823.5      2.18731e+6 
        12835.9      2.37237e+6 
        12852.6      2.43054e+6 
        12865.9      2.44307e+6 
        12879.2      2.44609e+6 
        12892.5      2.44488e+6 
        12919.1      2.43714e+6 
        12945.7      2.42655e+6 
          12999      2.40281e+6 
        13052.2      2.37819e+6 
        13105.4      2.35346e+6 
        13158.7      2.32887e+6 
        13211.9      2.30448e+6 
        13221.9      2.29991e+6 
        13265.1      2.28033e+6 
        13308.4      2.26092e+6 
