# Koester WD models
# teff = 6500 K (value for the effective temperature for the model. Temperatures are given in K)
# logg = 8.75 log(cm/s2) (value for Log(G) for the model.)
#
# column 1: WAVELENGTH (ANGSTROM), Wavelength in Angstrom
# column 2: FLUX (ERG/CM2/S/A), Flux in erg/cm2/s/A
         899.23         0.28009 
        909.241        0.371584 
        919.251        0.496177 
        929.261         0.67445 
        939.271        0.970407 
         949.28          1.0787 
        959.289         1.94981 
        969.297         2.62764 
        979.305         3.73589 
        989.312         4.99256 
        999.319         6.45082 
        1009.33         8.14628 
        1019.33          9.5489 
        1029.34         11.1207 
        1039.34         15.6088 
        1049.35         19.1306 
        1059.36         23.2358 
        1069.36         28.0014 
        1079.36         33.7074 
        1089.37         40.2064 
        1099.37         47.9552 
        1109.38         56.7089 
        1119.38         67.5131 
        1129.38         79.6903 
        1139.39         92.9968 
        1149.39         106.908 
        1159.39          118.76 
        1169.39         126.461 
         1179.4         132.088 
         1189.4         148.075 
         1199.4         169.371 
         1209.4         186.807 
        1219.41         212.716 
        1229.41         269.591 
        1239.41         317.144 
        1249.41          366.85 
        1259.41         423.659 
        1269.41         497.936 
        1279.42         587.629 
        1289.42         681.217 
        1299.42          781.17 
        1309.42         892.127 
        1319.42         1009.33 
        1329.42         1145.87 
        1339.42         1288.99 
        1349.42          1446.6 
        1359.42         1628.11 
        1369.42         1817.41 
        1379.42         2021.71 
        1389.42         2252.57 
        1399.42         2509.64 
        1409.42          2778.1 
        1419.42         3064.92 
        1429.42          3376.8 
        1439.42         3717.95 
        1454.42         4309.23 
        1464.42         4737.43 
        1474.42         5166.54 
        1489.42         5843.39 
        1501.92         6480.45 
        1514.42         7291.26 
        1529.42         8362.92 
        1544.42         9431.03 
        1559.42         10334.9 
        1570.19         11061.9 
        1584.41         12161.4 
        1599.41         13506.4 
        1611.91         14932.5 
        1624.41           16824 
        1639.41         19844.5 
        1654.41         23577.8 
        1665.56         26719.6 
        1676.33           29961 
         1689.4         34333.2 
         1704.4         40089.5 
         1719.4         45949.6 
         1734.4         52261.7 
        1749.39         58440.8 
        1764.39           64555 
        1775.55         69443.6 
        1789.39         76568.8 
        1809.39         87338.5 
           1824         95842.8 
        1834.77          102500 
        1845.54          109404 
         1856.3          117315 
        1867.07          125359 
        1882.44          137781 
        1894.73          148658 
        1907.03          160429 
        1919.18          172936 
        1931.21          185487 
        1943.24          200650 
        1953.98          214758 
        1968.59          233022 
         1983.2          252560 
        1997.81          273500 
        2012.42          295910 
         2023.2          314583 
        2033.25          333395 
        2050.14          363231 
        2067.03          395014 
        2083.92          430068 
        2100.82          467692 
        2116.25          504672 
        2127.83          534460 
        2139.41          569759 
        2154.84          613553 
        2165.47          645333 
        2176.11          677506 
        2186.74          711015 
        2197.37          745849 
           2208          782140 
        2219.04          820587 
        2230.26          858468 
        2241.48          897606 
         2252.7          937882 
        2263.91          982832 
        2275.13      1.04089e+6 
        2286.35      1.09682e+6 
        2298.83      1.16153e+6 
        2313.13       1.2423e+6 
        2327.43      1.31417e+6 
        2341.74      1.39361e+6 
        2356.04      1.47853e+6 
        2374.99      1.60191e+6 
        2387.62       1.6896e+6 
        2400.25        1.786e+6 
        2413.78      1.89715e+6 
        2425.51      2.00484e+6 
        2440.85       2.1539e+6 
        2451.59      2.25951e+6 
        2465.39      2.41521e+6 
        2475.96      2.53964e+6 
        2492.99      2.74857e+6 
        2510.01      2.96631e+6 
        2527.04      3.17496e+6 
        2544.07      3.38984e+6 
        2555.44      3.53652e+6 
        2566.81      3.70365e+6 
        2578.19      3.88417e+6 
        2589.56      4.06965e+6 
        2612.31      4.46612e+6 
        2627.48      4.72857e+6 
        2642.57      4.99655e+6 
         2653.9      5.20207e+6 
        2665.22      5.37963e+6 
        2676.54      5.54193e+6 
        2687.86      5.70425e+6 
        2710.51      6.02862e+6 
         2725.3      6.23977e+6 
         2740.7      6.45902e+6 
        2756.11      6.67752e+6 
        2786.92      7.12174e+6 
        2842.55      7.91637e+6 
        2854.55       8.0853e+6 
        2866.54      8.25978e+6 
        2890.53      8.60686e+6 
        2924.02      9.08762e+6 
         2938.5      9.29355e+6 
        2952.98      9.49835e+6 
        2967.47      9.67991e+6 
        2981.95      9.85992e+6 
        3010.91      1.02148e+7 
        3051.42      1.07001e+7 
        3115.02      1.14912e+7 
        3132.44      1.17022e+7 
        3149.86      1.19097e+7 
        3184.69      1.23218e+7 
        3216.49      1.26888e+7 
        3232.39       1.2869e+7 
        3248.29      1.30469e+7 
         3264.2      1.31664e+7 
         3280.1      1.32839e+7 
           3296      1.33993e+7 
         3311.9      1.35126e+7 
        3340.67      1.37127e+7 
        3352.79      1.37938e+7 
        3364.91      1.38726e+7 
        3389.15      1.40269e+7 
        3430.11      1.42772e+7 
        3445.17       1.4366e+7 
        3460.23       1.4448e+7 
        3490.35      1.46066e+7 
         3543.6      1.48706e+7 
        3591.28        1.508e+7 
        3635.88      1.52569e+7 
        3647.12      1.52988e+7 
        3658.96      1.53423e+7 
        3671.11      1.53854e+7 
        3682.58      1.54249e+7 
         3693.5      1.54613e+7 
        3703.57      1.54937e+7 
        3713.83       1.5526e+7 
        3724.38      1.55562e+7 
        3734.43      1.55787e+7 
        3744.62      1.56059e+7 
        3754.84      1.56299e+7 
        3765.07      1.56531e+7 
         3775.5       1.5676e+7 
        3786.22       1.5699e+7 
        3796.45      1.57162e+7 
        3807.84       1.5743e+7 
        3818.92      1.57645e+7 
        3830.45      1.57821e+7 
        3840.76      1.58028e+7 
        3851.98      1.58297e+7 
        3862.01      1.58485e+7 
        3872.59      1.58634e+7 
         3884.4      1.58412e+7 
        3894.46      1.58678e+7 
        3908.89      1.59347e+7 
        3923.89      1.59657e+7 
        3935.81      1.59841e+7 
        3946.58      1.59913e+7 
        3957.31      1.59629e+7 
        3967.38      1.56833e+7 
        3977.86      1.59221e+7 
        3988.87      1.60467e+7 
        4003.87       1.6092e+7 
        4018.86      1.61163e+7 
        4032.38      1.61322e+7 
        4043.86       1.6142e+7 
        4058.85      1.61473e+7 
        4073.85      1.61311e+7 
           4084      1.60719e+7 
        4094.68      1.57253e+7 
        4104.79      1.52121e+7 
        4115.15      1.60199e+7 
        4126.14      1.61501e+7 
        4138.83      1.61933e+7 
        4153.83      1.62134e+7 
        4168.82      1.62232e+7 
        4183.82      1.62281e+7 
        4198.82        1.623e+7 
        4213.81      1.62298e+7 
        4224.95      1.62282e+7 
        4238.81      1.62244e+7 
         4253.8      1.62176e+7 
         4268.8      1.62069e+7 
        4283.79      1.61896e+7 
        4298.79      1.61571e+7 
        4313.79      1.60739e+7 
        4326.14      1.58122e+7 
        4336.17      1.45267e+7 
         4346.3      1.49297e+7 
        4357.43       1.5884e+7 
        4367.98      1.60412e+7 
        4378.77      1.60883e+7 
        4393.77      1.61047e+7 
        4408.76      1.61008e+7 
        4423.76      1.60884e+7 
        4438.75      1.60725e+7 
        4453.75      1.60544e+7 
        4468.74      1.60348e+7 
        4483.74       1.6014e+7 
        4498.74      1.59934e+7 
        4513.73      1.59752e+7 
        4527.19      1.59578e+7 
        4538.73      1.59422e+7 
        4553.72       1.5921e+7 
        4568.72      1.58988e+7 
        4583.72      1.58755e+7 
        4596.53      1.58548e+7 
        4608.71       1.5834e+7 
         4623.7      1.58076e+7 
         4638.7      1.57803e+7 
         4653.7      1.57523e+7 
        4668.69      1.57235e+7 
        4683.69      1.56939e+7 
        4698.68       1.5663e+7 
        4713.68       1.5631e+7 
        4724.83      1.56063e+7 
        4738.67      1.55746e+7 
        4753.67      1.55383e+7 
        4768.67      1.54989e+7 
        4783.66      1.54545e+7 
        4798.66      1.54002e+7 
        4813.65      1.53234e+7 
        4828.65      1.51813e+7 
        4839.16      1.49502e+7 
        4850.22      1.41828e+7 
        4860.28      1.03192e+7 
        4870.81      1.39055e+7 
        4882.91      1.48413e+7 
        4893.63      1.50356e+7 
        4908.63      1.51096e+7 
         4921.7      1.51179e+7 
        4933.62      1.51087e+7 
        4948.62      1.50866e+7 
        4963.61      1.50584e+7 
        4978.61       1.5027e+7 
        4993.61      1.49934e+7 
         5008.6      1.49584e+7 
         5023.6      1.49223e+7 
        5038.59      1.48856e+7 
        5053.59      1.48483e+7 
        5068.59      1.48105e+7 
        5083.58      1.47722e+7 
        5098.58      1.47334e+7 
        5113.57      1.46944e+7 
        5128.57       1.4655e+7 
        5143.57      1.46154e+7 
        5158.56      1.45756e+7 
        5173.56      1.45355e+7 
        5188.55      1.44952e+7 
        5203.55      1.44547e+7 
        5218.55       1.4414e+7 
        5233.54      1.43732e+7 
        5248.54      1.43322e+7 
        5263.53       1.4291e+7 
        5278.53      1.42499e+7 
        5293.52       1.4209e+7 
        5308.52      1.41679e+7 
        5323.52      1.41266e+7 
        5338.51      1.40852e+7 
        5353.51      1.40437e+7 
        5368.51      1.40027e+7 
         5383.5      1.39605e+7 
         5398.5       1.3918e+7 
        5413.49      1.38755e+7 
        5428.49      1.38329e+7 
        5443.48      1.37902e+7 
        5458.48      1.37475e+7 
        5473.48      1.37048e+7 
        5488.47      1.36622e+7 
        5503.47      1.36196e+7 
        5518.47      1.35769e+7 
        5533.46      1.35342e+7 
        5548.46      1.34914e+7 
        5563.45      1.34486e+7 
        5578.45      1.34057e+7 
        5593.44      1.33627e+7 
        5608.44      1.33198e+7 
        5623.44      1.32768e+7 
        5638.43      1.32338e+7 
        5653.43      1.31907e+7 
        5668.43      1.31497e+7 
        5682.86      1.31082e+7 
        5693.42      1.30778e+7 
        5704.77      1.30451e+7 
        5715.23       1.3015e+7 
        5728.41      1.29771e+7 
         5743.4       1.2934e+7 
         5758.4      1.28908e+7 
         5773.4      1.28447e+7 
        5788.39      1.28015e+7 
        5803.39      1.27583e+7 
        5818.39       1.2715e+7 
        5833.38      1.26718e+7 
        5848.38      1.26286e+7 
        5863.37      1.25855e+7 
        5878.37      1.25423e+7 
        5893.36      1.24992e+7 
        5908.36      1.24561e+7 
        5923.36       1.2413e+7 
        5938.35      1.23699e+7 
        5953.35      1.23269e+7 
        5968.34      1.22839e+7 
        5983.34      1.22409e+7 
        5998.34      1.21979e+7 
        6013.33      1.21549e+7 
        6028.33      1.21119e+7 
        6043.32       1.2069e+7 
        6058.32      1.20261e+7 
        6073.32      1.19832e+7 
        6088.31      1.19404e+7 
        6103.31      1.18976e+7 
         6118.3      1.18548e+7 
         6133.3       1.1812e+7 
         6148.3      1.17692e+7 
        6163.29      1.17265e+7 
        6178.29      1.16837e+7 
        6193.28       1.1641e+7 
        6208.28      1.15982e+7 
        6223.28      1.15554e+7 
        6238.27      1.15126e+7 
        6252.16      1.14728e+7 
        6262.16      1.14442e+7 
        6273.26      1.14123e+7 
        6284.63      1.13796e+7 
        6295.99      1.13467e+7 
        6306.09      1.13175e+7 
        6316.22       1.1288e+7 
        6328.25      1.12527e+7 
        6343.24      1.12084e+7 
        6358.24      1.11635e+7 
        6373.23      1.11178e+7 
        6388.23      1.10709e+7 
        6403.23      1.10226e+7 
        6418.22       1.0972e+7 
        6433.22      1.09182e+7 
        6448.22      1.08594e+7 
        6463.21      1.07929e+7 
        6478.21      1.07133e+7 
         6493.2      1.06105e+7 
         6508.2      1.04624e+7 
        6523.19      1.02156e+7 
        6537.09      9.76913e+6 
        6548.06      9.01395e+6 
        6558.19       7.2785e+6 
        6568.58        7.573e+6 
        6579.13      9.10173e+6 
        6590.04      9.71534e+6 
        6603.34      1.00413e+7 
        6613.66       1.0162e+7 
        6623.98      1.02273e+7 
         6634.3      1.02611e+7 
        6644.62      1.02761e+7 
        6665.26      1.02744e+7 
         6685.9      1.02504e+7 
        6701.62      1.02243e+7 
        6721.34      1.01862e+7 
         6736.2      1.01549e+7 
        6780.49      1.00548e+7 
        6824.78      9.94939e+6 
        6913.35      9.73532e+6 
        7001.93      9.52097e+6 
        7071.86      9.35318e+6 
         7090.5      9.30873e+6 
        7109.15      9.26443e+6 
        7146.44      9.17694e+6 
        7221.02      9.00371e+6 
         7295.6      8.83293e+6 
        7346.84      8.71707e+6 
        7370.18      8.66589e+6 
        7393.51      8.61371e+6 
        7440.19      8.51095e+6 
        7533.55      8.30857e+6 
        7575.92      8.21809e+6 
         7626.9      8.11037e+6 
        7677.88      8.00387e+6 
        7728.86       7.8995e+6 
        7779.84      7.79633e+6 
        7830.82      7.69439e+6 
         7881.8      7.59367e+6 
        7903.32      7.55154e+6 
        7932.78      7.49418e+6 
        7962.25      7.43722e+6 
        8021.18      7.32513e+6 
        8077.68      7.21916e+6 
        8097.18        7.183e+6 
        8108.49      7.16211e+6 
        8155.67      7.07568e+6 
        8200.85      6.99388e+6 
        8216.85      6.96519e+6 
        8232.84      6.93667e+6 
        8264.83      6.87996e+6 
        8289.72      6.83617e+6 
        8328.82      6.76787e+6 
        8343.44      6.74252e+6 
        8367.92      6.70026e+6 
        8388.68      6.66476e+6 
        8408.65      6.63083e+6 
        8432.02      6.59131e+6 
        8467.25      6.53219e+6 
        8502.48       6.4736e+6 
        8516.58      6.45029e+6 
        8530.98      6.42657e+6 
        8545.38      6.40307e+6 
        8574.18      6.35638e+6 
        8598.39      6.31737e+6 
         8628.6      6.26905e+6 
        8646.81      6.24008e+6 
        8665.01      6.21124e+6 
        8685.59      6.17888e+6 
        8701.43      6.15403e+6 
        8750.47      6.07773e+6 
        8767.92       6.0509e+6 
        8815.35      5.97839e+6 
        8862.78      5.90717e+6 
        8900.38      5.85166e+6 
        8957.65      5.76784e+6 
        9014.91      5.68484e+6 
        9044.62      5.64287e+6 
        9072.17      5.60388e+6 
        9099.72      5.56517e+6 
        9154.81      5.48921e+6 
         9190.8      5.44014e+6 
         9209.9      5.41422e+6 
        9229.01      5.38755e+6 
        9267.22       5.3375e+6 
         9303.2      5.28994e+6 
        9343.64      5.23694e+6 
        9384.08      5.18451e+6 
        9464.96      5.08209e+6 
        9545.72       4.9788e+6 
        9561.21      4.96208e+6 
        9576.69      4.94377e+6 
        9607.66      4.90663e+6 
        9668.45      4.83403e+6 
        9729.24      4.76306e+6 
        9790.04      4.69316e+6 
        9850.83      4.62433e+6 
        9870.42      4.60234e+6 
        9911.62      4.55647e+6 
        9952.82      4.51098e+6 
        10021.1      4.43517e+6 
        10035.2       4.4178e+6 
        10049.4      4.39672e+6 
        10077.7      4.37536e+6 
          10106      4.34752e+6 
        10162.5      4.28978e+6 
        10201.1      4.25057e+6 
        10219.1      4.23229e+6 
        10237.2      4.21407e+6 
        10273.3      4.17866e+6 
        10345.5      4.10873e+6 
        10417.8      4.04003e+6 
          10490      3.97248e+6 
        10562.2      3.90622e+6 
        10634.4      3.84113e+6 
        10706.7      3.77717e+6 
        10778.9      3.71418e+6 
        10851.1      3.65138e+6 
        10908.6       3.5959e+6 
        10923.4      3.57617e+6 
        10934.4      3.55729e+6 
        10945.4      3.55195e+6 
        10960.2      3.55031e+6 
        10974.9      3.54347e+6 
        11004.4      3.52348e+6 
        11063.3      3.47796e+6 
        11122.2      3.43169e+6 
        11181.1      3.38582e+6 
        11219.1      3.35651e+6 
          11240      3.34055e+6 
        11260.9      3.32465e+6 
        11302.7      3.29418e+6 
        11386.2      3.23411e+6 
        11469.7       3.1753e+6 
        11553.2       3.1176e+6 
        11636.7      3.06106e+6 
        11720.3      3.00567e+6 
        11803.8      2.95139e+6 
        11887.3      2.89821e+6 
        11970.8       2.8461e+6 
        12054.3      2.79495e+6 
        12137.8       2.7449e+6 
        12158.1      2.73292e+6 
        12221.4      2.69585e+6 
        12284.6      2.65935e+6 
        12347.9      2.62473e+6 
        12411.2      2.59058e+6 
        12474.4      2.55687e+6 
        12537.7      2.52354e+6 
          12601      2.49044e+6 
        12664.2      2.45714e+6 
        12695.9      2.43994e+6 
        12727.5      2.42151e+6 
        12743.3       2.4112e+6 
        12759.1      2.39932e+6 
        12774.9       2.3843e+6 
        12790.8      2.36262e+6 
        12804.4      2.33327e+6 
          12818      2.28674e+6 
        12830.8       2.3185e+6 
        12843.6      2.33463e+6 
        12856.4      2.34128e+6 
        12869.2      2.34254e+6 
          12882      2.34092e+6 
        12907.6      2.33357e+6 
        12933.2       2.3238e+6 
        12958.8      2.31302e+6 
          13010      2.29037e+6 
        13061.1      2.26728e+6 
        13112.3      2.24418e+6 
        13163.5      2.22123e+6 
        13214.7      2.19848e+6 
        13265.9      2.17596e+6 
        13308.4      2.15745e+6 
        13393.3      2.12247e+6 
        13478.2      2.08809e+6 
        13563.1      2.05428e+6 
          13648      2.02117e+6 
        13732.9      1.98856e+6 
        13817.8      1.95653e+6 
        13902.7      1.92511e+6 
        13987.7      1.89426e+6 
        14072.6      1.86406e+6 
        14157.5      1.83446e+6 
        14242.4      1.80539e+6 
        14322.5      1.77844e+6 
          14340       1.7727e+6 
        14360.7      1.76599e+6 
        14398.8       1.7537e+6 
        14457.6      1.73493e+6 
        14516.5      1.71647e+6 
        14567.4      1.70068e+6 
        14581.2      1.69643e+6 
        14597.2      1.69156e+6 
        14613.2      1.68672e+6 
        14645.2      1.67708e+6 
        14709.2      1.65798e+6 
        14773.2       1.6391e+6 
        14837.1      1.62046e+6 
        14901.1      1.60204e+6 
