# Koester WD models
# teff = 6500 K (value for the effective temperature for the model. Temperatures are given in K)
# logg = 9 log(cm/s2) (value for Log(G) for the model.)
#
# column 1: WAVELENGTH (ANGSTROM), Wavelength in Angstrom
# column 2: FLUX (ERG/CM2/S/A), Flux in erg/cm2/s/A
         899.23        0.316456 
        909.241        0.419264 
        919.251         0.55647 
        929.261        0.750149 
        939.271         1.04605 
         949.28         1.21091 
        959.289         2.03891 
        969.297          2.7525 
        979.305         3.88766 
        989.312         5.19695 
        999.319         6.70758 
        1009.33           8.455 
        1019.33         9.94286 
        1029.34         11.6057 
        1039.34           16.11 
        1049.35         19.7129 
        1059.36         23.9275 
        1069.36         28.8197 
        1079.36         34.6785 
        1089.37         41.3547 
        1099.37         49.3114 
        1109.38         58.3051 
        1119.38         69.3884 
        1129.38         81.8862 
        1139.39         95.5625 
        1149.39         109.854 
        1159.39             122 
        1169.39          129.79 
         1179.4         136.376 
         1189.4         154.032 
         1199.4         176.868 
         1209.4         198.039 
        1219.41         226.472 
        1229.41         279.172 
        1239.41         326.958 
        1249.41         377.663 
        1259.41         435.591 
        1269.41         510.663 
        1279.42         601.706 
        1289.42          697.22 
        1299.42         799.391 
        1309.42         912.783 
        1319.42         1032.61 
        1329.42         1172.03 
        1339.42         1318.49 
        1349.42         1479.37 
        1359.42         1664.93 
        1369.42         1858.41 
        1379.42          2066.7 
        1389.42          2302.5 
        1399.42         2565.07 
        1409.42         2839.18 
        1419.42         3131.74 
        1429.42         3449.78 
        1439.42         3797.81 
        1454.42         4401.18 
        1464.42         4837.68 
        1474.42         5274.77 
        1489.42         5964.16 
        1501.92         6613.24 
        1514.42         7440.39 
        1529.42          8532.5 
        1544.42         9619.93 
        1559.42         10537.7 
        1570.19         11279.4 
        1584.41         12400.7 
        1599.41         13773.7 
        1611.91         15222.2 
        1624.41           17143 
        1639.41         20221.6 
        1654.41         24007.3 
        1665.56         27123.5 
        1676.33         30280.3 
         1689.4         34475.8 
         1704.4           39924 
         1719.4         45482.7 
         1734.4           51415 
        1749.39           57297 
        1764.39         63191.6 
        1775.55         67888.2 
        1789.39         74585.5 
        1809.39         84752.9 
           1824         92829.4 
        1834.77         99128.9 
        1845.54          105645 
         1856.3          112925 
        1867.07          120381 
        1882.44          131915 
        1894.73          141964 
        1907.03          152679 
        1919.18          163993 
        1931.21          175453 
        1943.24          188868 
        1953.98          201298 
        1968.59          217718 
         1983.2          235154 
        1997.81          253795 
        2012.42          273685 
         2023.2          289906 
        2033.25          305968 
        2050.14          332032 
        2067.03          359694 
        2083.92          390123 
        2100.82          422937 
        2116.25          454918 
        2131.69          489875 
        2147.12          528121 
        2159.65          559260 
         2171.3          589190 
        2182.95          619965 
        2194.61          652056 
        2206.26          685706 
        2231.56          759037 
        2248.43          808734 
        2260.04          844017 
        2271.66          890010 
        2287.14          952330 
        2302.63      1.01852e+6 
        2313.13      1.06786e+6 
        2323.64      1.11147e+6 
        2334.14       1.1576e+6 
        2344.64      1.20826e+6 
        2355.15      1.26066e+6 
        2369.56      1.33867e+6 
        2383.97      1.42268e+6 
        2398.38      1.51464e+6 
        2409.27      1.59113e+6 
        2424.02      1.70388e+6 
        2436.08      1.80785e+6 
        2446.14      1.89471e+6 
        2456.19      1.98445e+6 
        2474.59      2.17978e+6 
        2492.99      2.38372e+6 
        2510.01      2.58208e+6 
        2527.04      2.77334e+6 
        2544.07       2.9707e+6 
        2555.44      3.10577e+6 
        2566.81      3.26031e+6 
        2578.19      3.42773e+6 
        2589.56      3.59983e+6 
        2612.31      3.96362e+6 
        2627.48      4.21046e+6 
        2642.57      4.46411e+6 
        2657.62      4.72398e+6 
        2670.42      4.89803e+6 
        2683.21      5.07251e+6 
        2708.81      5.42135e+6 
        2756.11       6.0639e+6 
        2846.87      7.32434e+6 
        2862.22      7.54149e+6 
        2877.57      7.76454e+6 
        2908.26      8.20983e+6 
        2930.62       8.5336e+6 
        2952.98      8.85606e+6 
        2975.34      9.14222e+6 
         2997.7      9.42569e+6 
        3020.06      9.70645e+6 
        3033.42      9.87277e+6 
        3051.42      1.00953e+7 
        3069.42      1.03368e+7 
        3105.43      1.08145e+7 
        3149.86       1.1393e+7 
        3229.12       1.2419e+7 
        3248.29      1.26599e+7 
        3267.47      1.28169e+7 
        3286.64      1.29712e+7 
        3303.23      1.31025e+7 
        3324.98      1.32714e+7 
         3335.3      1.33503e+7 
        3346.73      1.34367e+7 
        3390.23      1.37483e+7 
        3445.17      1.41214e+7 
         3456.6      1.41917e+7 
        3495.92       1.4426e+7 
         3543.6      1.46947e+7 
        3591.28      1.49359e+7 
        3635.88      1.51414e+7 
        3647.12      1.51905e+7 
        3658.96      1.52416e+7 
        3671.11      1.52923e+7 
        3682.58      1.53387e+7 
         3693.5      1.53816e+7 
        3703.57        1.542e+7 
        3713.83      1.54582e+7 
        3724.38      1.54938e+7 
        3734.43      1.55216e+7 
        3744.62      1.55518e+7 
        3754.84      1.55799e+7 
        3765.07      1.56072e+7 
         3775.5      1.56342e+7 
        3786.22      1.56612e+7 
        3796.45      1.56842e+7 
        3807.84      1.57129e+7 
        3818.92      1.57382e+7 
        3830.45      1.57629e+7 
        3840.76      1.57857e+7 
        3851.98       1.5812e+7 
        3862.01      1.58331e+7 
        3872.59      1.58528e+7 
         3884.4      1.58588e+7 
        3894.46       1.5882e+7 
        3908.89      1.59271e+7 
        3923.89      1.59586e+7 
        3935.81      1.59801e+7 
        3946.58      1.59929e+7 
        3957.31      1.59831e+7 
        3967.38      1.58559e+7 
        3977.86      1.59786e+7 
        3988.87      1.60615e+7 
        4003.87      1.61022e+7 
        4018.86      1.61284e+7 
        4032.38      1.61475e+7 
        4043.86      1.61603e+7 
        4058.85      1.61699e+7 
        4073.85      1.61599e+7 
           4084      1.61116e+7 
        4095.68      1.58003e+7 
        4105.79      1.56605e+7 
        4116.69      1.61081e+7 
        4128.84      1.62079e+7 
        4143.83      1.62475e+7 
        4158.83      1.62664e+7 
        4173.82      1.62779e+7 
        4188.82      1.62854e+7 
        4203.81        1.629e+7 
        4216.52      1.62924e+7 
        4228.81      1.62931e+7 
        4243.81      1.62915e+7 
         4258.8      1.62864e+7 
         4273.8      1.62765e+7 
        4288.79      1.62572e+7 
        4303.79      1.62147e+7 
        4314.07      1.61452e+7 
        4326.14      1.58891e+7 
        4336.17      1.48609e+7 
        4346.17      1.51276e+7 
        4357.43      1.59649e+7 
        4367.98      1.61251e+7 
        4378.77      1.61772e+7 
        4393.77      1.61982e+7 
        4408.76       1.6197e+7 
        4423.76      1.61863e+7 
        4438.75      1.61717e+7 
        4453.75      1.61548e+7 
        4468.74      1.61362e+7 
        4483.74      1.61164e+7 
        4498.74      1.60966e+7 
        4513.73      1.60809e+7 
        4527.19      1.60656e+7 
        4538.73      1.60517e+7 
        4553.72      1.60326e+7 
        4568.72      1.60122e+7 
        4583.72      1.59907e+7 
        4596.53      1.59714e+7 
        4608.71      1.59515e+7 
         4623.7      1.59261e+7 
         4638.7      1.58999e+7 
         4653.7      1.58727e+7 
        4668.69      1.58446e+7 
        4683.69      1.58156e+7 
        4698.68      1.57852e+7 
        4713.68      1.57532e+7 
        4724.83      1.57286e+7 
        4738.67      1.56967e+7 
        4753.67      1.56598e+7 
        4768.67      1.56194e+7 
        4783.66      1.55729e+7 
        4798.66      1.55149e+7 
        4813.65      1.54307e+7 
        4828.65      1.52724e+7 
        4839.16      1.50184e+7 
        4850.22      1.42358e+7 
        4860.36      1.12061e+7 
        4870.86      1.39797e+7 
        4882.01      1.48789e+7 
        4892.79       1.5119e+7 
        4903.63      1.52025e+7 
        4915.55      1.52316e+7 
        4928.62      1.52331e+7 
        4943.62      1.52176e+7 
        4958.61      1.51932e+7 
        4973.61       1.5164e+7 
        4988.61       1.5132e+7 
         5003.6       1.5098e+7 
         5018.6      1.50627e+7 
         5033.6      1.50266e+7 
        5048.59      1.49897e+7 
        5063.59      1.49523e+7 
        5078.58      1.49143e+7 
        5093.58      1.48757e+7 
        5108.57      1.48366e+7 
        5123.57      1.47973e+7 
        5138.57      1.47577e+7 
        5153.56      1.47178e+7 
        5168.56      1.46777e+7 
        5183.56      1.46374e+7 
        5198.55      1.45968e+7 
        5213.55       1.4556e+7 
        5228.54       1.4515e+7 
        5243.54      1.44739e+7 
        5258.53      1.44325e+7 
        5273.53       1.4391e+7 
        5288.53      1.43501e+7 
        5303.52       1.4309e+7 
        5318.52      1.42678e+7 
        5333.52      1.42263e+7 
        5348.51      1.41847e+7 
        5363.51      1.41438e+7 
         5378.5      1.41015e+7 
         5393.5      1.40588e+7 
        5408.49      1.40159e+7 
        5423.49       1.3973e+7 
        5438.49        1.393e+7 
        5453.48      1.38869e+7 
        5468.48      1.38438e+7 
        5483.48       1.3801e+7 
        5498.47      1.37581e+7 
        5513.47      1.37152e+7 
        5528.46      1.36722e+7 
        5543.46      1.36292e+7 
        5558.45      1.35861e+7 
        5573.45      1.35429e+7 
        5588.45      1.34997e+7 
        5603.44      1.34564e+7 
        5618.44      1.34131e+7 
        5633.43      1.33697e+7 
        5648.43      1.33264e+7 
        5663.43       1.3283e+7 
        5673.98      1.32549e+7 
         5686.2      1.32195e+7 
        5698.42       1.3184e+7 
        5708.88      1.31537e+7 
        5723.41      1.31115e+7 
        5738.41       1.3068e+7 
         5753.4      1.30245e+7 
         5768.4      1.29773e+7 
        5783.39      1.29336e+7 
        5798.39        1.289e+7 
        5813.39      1.28464e+7 
        5828.38      1.28028e+7 
        5843.38      1.27592e+7 
        5858.37      1.27156e+7 
        5873.37       1.2672e+7 
        5888.37      1.26285e+7 
        5903.36      1.25849e+7 
        5918.36      1.25414e+7 
        5933.35      1.24979e+7 
        5948.35      1.24544e+7 
        5963.35       1.2411e+7 
        5978.34      1.23675e+7 
        5993.34      1.23241e+7 
        6008.33      1.22806e+7 
        6023.33      1.22372e+7 
        6038.32      1.21938e+7 
        6053.32      1.21504e+7 
        6068.32       1.2107e+7 
        6083.31      1.20637e+7 
        6098.31      1.20204e+7 
        6113.31      1.19771e+7 
         6128.3      1.19338e+7 
         6143.3      1.18905e+7 
        6158.29      1.18472e+7 
        6173.29      1.18039e+7 
        6188.28      1.17606e+7 
        6203.28      1.17172e+7 
        6218.28      1.16738e+7 
        6233.27      1.16303e+7 
        6244.38       1.1598e+7 
        6256.04      1.15641e+7 
        6266.59      1.15333e+7 
        6278.26      1.14991e+7 
        6290.52       1.1463e+7 
        6302.31      1.14282e+7 
        6312.59      1.13976e+7 
        6323.25      1.13657e+7 
        6338.24      1.13204e+7 
        6353.24      1.12744e+7 
        6368.24      1.12274e+7 
        6383.23      1.11792e+7 
        6398.23      1.11293e+7 
        6413.22      1.10769e+7 
        6428.22      1.10211e+7 
        6443.22        1.096e+7 
        6458.21      1.08909e+7 
        6473.21      1.08087e+7 
         6488.2      1.07043e+7 
         6503.2       1.0559e+7 
         6518.2      1.03311e+7 
        6532.67      9.93526e+6 
        6543.19      9.39349e+6 
        6554.64      8.13977e+6 
        6564.69       6.6237e+6 
        6575.67       8.7493e+6 
        6585.74      9.50523e+6 
        6598.17      9.94465e+6 
         6608.5        1.013e+7 
        6618.82      1.02351e+7 
         6634.3      1.03135e+7 
        6644.62      1.03364e+7 
        6654.94      1.03454e+7 
        6675.58      1.03386e+7 
        6696.23       1.0313e+7 
        6711.48      1.02874e+7 
        6741.98      1.02269e+7 
        6781.19      1.01394e+7 
        6802.98      1.00883e+7 
        6824.78      1.00363e+7 
        6868.37      9.93117e+6 
        6955.56      9.71871e+6 
        6976.35      9.66806e+6 
        7042.75      9.50687e+6 
        7109.15      9.34709e+6 
        7175.54      9.19023e+6 
        7241.94      9.03519e+6 
        7308.33      8.88213e+6 
        7355.95      8.77359e+6 
        7374.73      8.73259e+6 
        7393.51      8.69018e+6 
        7431.08      8.60649e+6 
        7506.22      8.44115e+6 
        7581.35      8.27857e+6 
         7635.1      8.16393e+6 
        7656.49      8.11869e+6 
        7677.88       8.0737e+6 
        7720.67      7.98505e+6 
        7806.23      7.81034e+6 
        7821.36      7.77984e+6 
         7891.8      7.63916e+6 
        7962.25      7.50084e+6 
        7982.84      7.46106e+6 
        8032.69      7.36556e+6 
        8082.55      7.27122e+6 
        8161.68      7.12432e+6 
        8182.26      7.08655e+6 
        8200.85      7.05266e+6 
        8216.85      7.02366e+6 
        8232.84      6.99482e+6 
        8264.83      6.93748e+6 
        8289.72      6.89322e+6 
        8328.82      6.82417e+6 
        8343.44      6.79853e+6 
        8367.92      6.75584e+6 
        8388.68      6.71996e+6 
        8408.65      6.68565e+6 
        8432.02      6.64569e+6 
        8467.25      6.58594e+6 
        8502.48      6.52669e+6 
        8516.58      6.50313e+6 
        8530.98      6.47916e+6 
        8545.38      6.45541e+6 
        8574.18      6.40819e+6 
        8598.39      6.36876e+6 
         8628.6      6.31991e+6 
        8646.81      6.29063e+6 
        8665.01      6.26148e+6 
        8685.59      6.22874e+6 
        8701.43      6.20364e+6 
        8750.47      6.12655e+6 
        8767.92       6.0994e+6 
        8815.35      6.02614e+6 
        8862.78       5.9542e+6 
        8900.38      5.89796e+6 
        8957.65      5.81327e+6 
        9014.91      5.72954e+6 
        9044.62      5.68694e+6 
        9072.17      5.64755e+6 
        9099.72      5.60843e+6 
        9154.81      5.53162e+6 
         9190.8      5.48202e+6 
         9209.9      5.45588e+6 
        9229.01      5.42936e+6 
        9267.22      5.37828e+6 
         9303.2      5.33015e+6 
        9343.64      5.27659e+6 
        9384.08      5.22359e+6 
        9464.96      5.12007e+6 
        9545.72      5.01741e+6 
        9561.21      4.99934e+6 
        9576.69      4.98049e+6 
        9607.66      4.94273e+6 
        9668.45      4.86928e+6 
        9729.24      4.79749e+6 
        9790.04      4.72684e+6 
        9850.83      4.65725e+6 
        9870.42      4.63507e+6 
        9911.62      4.58874e+6 
        9952.82      4.54281e+6 
        10021.1      4.46716e+6 
        10035.2      4.45085e+6 
        10049.4      4.43276e+6 
        10077.7      4.40671e+6 
          10106      4.37781e+6 
        10162.5      4.31919e+6 
        10201.1      4.27951e+6 
        10219.1      4.26104e+6 
        10237.2      4.24266e+6 
        10273.3      4.20681e+6 
        10345.5       4.1361e+6 
        10417.8      4.06667e+6 
          10490      3.99837e+6 
        10562.2      3.93142e+6 
        10634.4      3.86564e+6 
        10706.7      3.80098e+6 
        10778.9      3.73733e+6 
        10851.1      3.67403e+6 
        10908.6      3.62006e+6 
        10923.4      3.60356e+6 
        10938.1      3.58327e+6 
        10952.8      3.57906e+6 
        10967.5      3.57099e+6 
          10997       3.5506e+6 
        11055.9      3.50467e+6 
        11114.8      3.45789e+6 
        11173.7      3.41152e+6 
        11204.4      3.38761e+6 
        11232.7      3.36571e+6 
        11260.9      3.34401e+6 
        11317.4      3.30241e+6 
        11373.9      3.26138e+6 
        11430.4      3.22089e+6 
        11486.9      3.18102e+6 
        11543.3      3.14162e+6 
        11599.8      3.10277e+6 
        11656.3      3.06446e+6 
        11712.8      3.02667e+6 
        11769.3      2.98941e+6 
        11825.8      2.95266e+6 
        11882.3      2.91643e+6 
        11938.8      2.88069e+6 
        11995.3      2.84544e+6 
        12051.7      2.81056e+6 
        12108.2      2.77626e+6 
        12164.7      2.74243e+6 
        12221.2      2.70906e+6 
        12270.8      2.68016e+6 
        12284.6      2.67213e+6 
        12298.5      2.66441e+6 
        12326.3      2.64906e+6 
        12381.8      2.61862e+6 
        12437.3      2.58853e+6 
        12492.8      2.55878e+6 
        12548.3      2.52929e+6 
        12603.8      2.49994e+6 
        12659.3      2.47039e+6 
        12714.8      2.43941e+6 
        12746.5      2.41927e+6 
        12770.3      2.40039e+6 
        12782.3      2.38839e+6 
        12794.2      2.37353e+6 
        12806.1      2.35529e+6 
          12818      2.33107e+6 
        12830.8      2.34417e+6 
        12843.6      2.35078e+6 
        12856.4       2.3535e+6 
        12869.2      2.35317e+6 
          12882      2.35087e+6 
        12907.6      2.34305e+6 
        12958.8      2.32224e+6 
          13010      2.29941e+6 
        13061.1      2.27615e+6 
        13112.3      2.25287e+6 
        13163.5      2.22974e+6 
        13214.7      2.20681e+6 
        13265.9      2.18412e+6 
        13308.4      2.16548e+6 
        13393.3      2.13022e+6 
        13478.2      2.09569e+6 
        13563.1      2.06179e+6 
          13648       2.0286e+6 
        13732.9      1.99589e+6 
        13817.8      1.96377e+6 
        13902.7      1.93223e+6 
        13987.7      1.90129e+6 
        14072.6      1.87093e+6 
        14157.5      1.84112e+6 
        14242.4      1.81184e+6 
        14322.5      1.78467e+6 
          14340      1.77888e+6 
        14360.7      1.77211e+6 
        14398.8      1.75972e+6 
        14457.6      1.74077e+6 
        14516.5      1.72213e+6 
        14567.4      1.70617e+6 
        14581.2      1.70187e+6 
        14597.2      1.69695e+6 
        14613.2      1.69205e+6 
        14645.2      1.68229e+6 
        14709.2      1.66297e+6 
        14773.2      1.64388e+6 
        14837.1      1.62503e+6 
        14901.1      1.60641e+6 
        14965.1      1.58802e+6 
        15029.1      1.56985e+6 
        15093.1      1.55192e+6 
        15157.1      1.53421e+6 
          15221      1.51672e+6 
          15285      1.49945e+6 
