# Koester WD models
# teff = 6250 K (value for the effective temperature for the model. Temperatures are given in K)
# logg = 7.75 log(cm/s2) (value for Log(G) for the model.)
#
# column 1: WAVELENGTH (ANGSTROM), Wavelength in Angstrom
# column 2: FLUX (ERG/CM2/S/A), Flux in erg/cm2/s/A
         899.23       0.0736254 
        909.241       0.0991207 
        919.251        0.136515 
        929.261        0.185899 
        939.271        0.283513 
         949.28        0.304152 
        959.289        0.616176 
        969.297        0.847426 
        979.305         1.19561 
        989.312         1.59917 
        999.319         2.08468 
        1009.33         2.66711 
        1019.33         3.23248 
        1029.34         3.85232 
        1039.34         5.32509 
        1049.35         6.59593 
        1059.36         8.10141 
        1069.36         9.87274 
        1079.36         12.0102 
        1089.37         14.4828 
        1099.37         17.4508 
        1109.38          20.857 
        1119.38         25.0529 
        1129.38          29.854 
        1139.39         35.2276 
        1149.39         41.0333 
        1159.39         46.4164 
        1169.39         50.4863 
         1179.4          52.862 
         1189.4         58.8703 
         1199.4         67.3184 
         1209.4         72.6751 
        1219.41         82.6867 
        1229.41         111.145 
        1239.41         132.617 
        1249.41         154.806 
        1259.41         180.194 
        1269.41         213.864 
        1279.42         253.941 
        1289.42         295.984 
        1299.42         340.929 
        1309.42         391.417 
        1319.42         445.393 
        1329.42         508.099 
        1339.42         574.729 
        1349.42         648.805 
        1359.42          733.86 
        1369.42          823.43 
        1379.42         921.888 
        1389.42         1032.91 
        1399.42         1155.44 
        1409.42         1285.46 
        1419.42         1428.02 
        1429.42         1583.73 
        1439.42         1751.75 
        1454.42         2041.25 
        1464.42         2256.86 
        1474.42         2480.02 
        1489.42         2829.76 
        1504.42         3232.51 
        1514.42         3562.75 
        1529.42         4113.63 
        1544.42         4677.42 
        1559.42         5186.24 
        1570.19         5580.47 
        1584.41         6178.76 
        1599.41         6903.59 
        1614.41         7848.74 
        1629.41         9144.92 
        1644.41         10813.5 
        1659.41           12804 
        1670.17         14450.3 
         1681.9         16455.8 
         1694.4         19038.9 
         1709.4           22594 
         1724.4         26415.2 
         1739.4         30525.3 
        1754.39         34417.7 
        1767.08         37620.3 
        1779.39         41156.7 
        1794.39         46569.7 
        1809.39         51980.5 
           1824         57699.4 
        1834.77         62185.9 
        1845.54         66888.6 
         1856.3         72759.6 
        1867.07         78612.7 
        1882.44         87579.7 
        1894.73         95715.5 
        1907.03          104660 
        1919.18          114240 
        1931.21          124154 
        1943.24          137729 
        1953.98          150555 
        1968.59          165994 
         1983.2          182744 
        1997.81          201111 
        2011.46          220054 
        2024.16          242064 
        2035.27          262674 
        2046.37          280749 
        2059.07          302670 
           2075          332880 
        2090.93          366426 
        2106.86          403349 
         2119.1          434328 
        2130.48          466043 
        2141.86          505913 
        2153.24          539069 
        2163.78          571374 
        2177.36          614678 
        2190.94          661308 
        2204.52          710798 
         2214.7          749854 
        2224.87          788449 
        2235.87          831756 
        2249.89          889573 
        2261.58          943763 
        2273.26       1.0206e+6 
        2287.28      1.10322e+6 
        2298.82      1.17541e+6 
        2309.55       1.2471e+6 
        2320.29      1.31277e+6 
        2331.03      1.37586e+6 
        2342.66        1.448e+6 
        2354.82      1.52631e+6 
        2368.43      1.61655e+6 
        2382.05      1.70913e+6 
        2395.66      1.80593e+6 
        2409.22      1.90772e+6 
        2422.02       2.0142e+6 
        2432.64       2.1137e+6 
        2444.42      2.20829e+6 
        2456.19      2.30531e+6 
        2474.59      2.48032e+6 
        2492.99      2.65778e+6 
        2510.01      2.82901e+6 
        2527.04      2.98938e+6 
        2544.07      3.15438e+6 
        2559.23      3.30483e+6 
         2574.4      3.48421e+6 
        2589.56      3.66891e+6 
        2604.73      3.87468e+6 
        2619.89      4.07628e+6 
        2635.06      4.26597e+6 
        2650.22      4.45965e+6 
        2665.11      4.63259e+6 
        2678.36      4.76972e+6 
        2717.23       5.1769e+6 
        2756.11      5.58993e+6 
        2813.18      6.20578e+6 
        2833.86       6.4315e+6 
        2854.55      6.65732e+6 
        2895.92      7.08658e+6 
        2921.59      7.35324e+6 
        2937.29      7.51582e+6 
        2952.98      7.67793e+6 
        2980.12      7.93199e+6 
        3015.77      8.26101e+6 
        3051.42      8.58428e+6 
        3095.58      8.98769e+6 
        3122.72      9.23229e+6 
        3149.86      9.46427e+6 
        3159.97      9.54755e+6 
        3204.13      9.90437e+6 
        3226.21      1.00784e+7 
        3248.29      1.02494e+7 
        3270.37      1.03808e+7 
        3292.45      1.05093e+7 
        3314.53      1.06346e+7 
         3326.5      1.07013e+7 
        3336.62      1.07569e+7 
        3346.73      1.08119e+7 
        3366.96      1.09175e+7 
        3407.42      1.11211e+7 
        3445.17      1.13022e+7 
        3497.73      1.15278e+7 
        3520.67       1.1619e+7 
         3543.6      1.17072e+7 
        3587.66      1.18634e+7 
        3602.15      1.19117e+7 
        3616.63      1.19588e+7 
        3635.88      1.20196e+7 
        3647.12      1.20537e+7 
        3658.96      1.20892e+7 
        3671.11      1.21245e+7 
        3682.58      1.21571e+7 
         3693.5      1.21873e+7 
        3703.57      1.22139e+7 
        3713.83      1.22415e+7 
        3724.38      1.22678e+7 
        3734.43      1.22795e+7 
        3744.62      1.23144e+7 
        3754.84      1.23375e+7 
        3765.07      1.23599e+7 
         3775.5      1.23841e+7 
        3786.22      1.24101e+7 
        3796.45      1.23901e+7 
        3807.84      1.24646e+7 
        3818.92      1.24935e+7 
        3830.45      1.24742e+7 
        3840.76      1.25081e+7 
        3851.98      1.25824e+7 
        3862.01      1.26099e+7 
        3872.59      1.26242e+7 
         3884.4      1.24924e+7 
        3894.99      1.25675e+7 
        3908.89      1.27131e+7 
        3923.89      1.27526e+7 
        3935.81      1.27735e+7 
        3946.58      1.27822e+7 
        3957.31      1.27503e+7 
        3967.38      1.21047e+7 
        3977.86       1.2676e+7 
        3988.87      1.28363e+7 
        4003.87      1.28813e+7 
        4018.86      1.29048e+7 
        4032.38      1.29212e+7 
        4043.86      1.29326e+7 
        4058.85      1.29429e+7 
        4073.85      1.29406e+7 
           4084      1.29088e+7 
        4094.68      1.26308e+7 
        4104.79      1.18906e+7 
        4115.15      1.28814e+7 
        4126.14      1.29709e+7 
        4138.83      1.29994e+7 
        4153.83      1.30149e+7 
        4168.82      1.30245e+7 
        4183.82      1.30315e+7 
        4198.82      1.30367e+7 
        4213.81      1.30405e+7 
        4224.95      1.30425e+7 
        4238.81       1.3044e+7 
         4253.8      1.30441e+7 
         4268.8      1.30423e+7 
        4283.79      1.30374e+7 
        4298.79      1.30258e+7 
        4313.79      1.29918e+7 
        4326.14      1.28657e+7 
        4336.17      1.18756e+7 
        4346.52      1.22996e+7 
        4357.43      1.29051e+7 
        4367.98      1.29806e+7 
        4378.77      1.30009e+7 
        4393.77      1.30071e+7 
        4408.76      1.30045e+7 
        4423.76      1.29983e+7 
        4438.75      1.29904e+7 
        4453.75      1.29813e+7 
        4468.74      1.29713e+7 
        4483.74      1.29605e+7 
        4498.74       1.2956e+7 
        4513.73      1.29451e+7 
        4527.19      1.29347e+7 
        4538.73      1.29253e+7 
        4553.72      1.29124e+7 
        4568.72       1.2899e+7 
        4583.72      1.28849e+7 
        4596.53      1.28723e+7 
        4608.71      1.28597e+7 
         4623.7      1.28437e+7 
         4638.7      1.28271e+7 
         4653.7      1.28099e+7 
        4668.69      1.27923e+7 
        4683.69       1.2774e+7 
        4698.68      1.27551e+7 
        4713.68      1.27355e+7 
        4724.83      1.27205e+7 
        4738.67      1.27013e+7 
        4753.67      1.26797e+7 
        4768.67      1.26567e+7 
        4783.66      1.26316e+7 
        4798.66      1.26028e+7 
        4813.65      1.25654e+7 
        4828.65      1.25021e+7 
        4839.16      1.24006e+7 
        4849.39      1.20649e+7 
         4859.6       8.7384e+6 
        4869.86      1.17179e+7 
        4880.19      1.22858e+7 
        4893.63      1.24049e+7 
        4908.63      1.24231e+7 
         4921.7      1.24166e+7 
        4933.62      1.24044e+7 
        4948.62       1.2385e+7 
        4963.61      1.23633e+7 
        4978.61      1.23402e+7 
        4993.61      1.23162e+7 
         5008.6      1.22914e+7 
         5023.6      1.22662e+7 
        5038.59      1.22405e+7 
        5053.59      1.22144e+7 
        5068.59      1.21881e+7 
        5083.58      1.21614e+7 
        5098.58      1.21344e+7 
        5113.57      1.21071e+7 
        5128.57      1.20796e+7 
        5143.57      1.20519e+7 
        5158.56       1.2024e+7 
        5173.56      1.19959e+7 
        5188.55      1.19675e+7 
        5203.55      1.19389e+7 
        5218.55      1.19102e+7 
        5233.54      1.18813e+7 
        5248.54      1.18522e+7 
        5263.53      1.18229e+7 
        5278.53      1.17935e+7 
        5293.52      1.17641e+7 
        5308.52      1.17346e+7 
        5323.52      1.17049e+7 
        5338.51       1.1675e+7 
        5353.51       1.1645e+7 
        5368.51      1.16151e+7 
         5383.5      1.15846e+7 
         5398.5      1.15539e+7 
        5413.49      1.15232e+7 
        5428.49      1.14923e+7 
        5443.48      1.14613e+7 
        5458.48      1.14302e+7 
        5473.48      1.13991e+7 
        5488.47       1.1368e+7 
        5503.47      1.13368e+7 
        5518.47      1.13054e+7 
        5533.46       1.1274e+7 
        5548.46      1.12425e+7 
        5563.45      1.12109e+7 
        5578.45      1.11792e+7 
        5593.44      1.11475e+7 
        5608.44      1.11157e+7 
        5623.44      1.10838e+7 
        5638.43      1.10518e+7 
        5653.43      1.10198e+7 
        5668.43      1.09882e+7 
        5682.86      1.09573e+7 
        5693.42      1.09347e+7 
        5704.77      1.09102e+7 
        5715.23      1.08878e+7 
        5728.41      1.08594e+7 
         5743.4      1.08271e+7 
         5758.4      1.07948e+7 
         5773.4      1.07614e+7 
        5788.39      1.07289e+7 
        5803.39      1.06965e+7 
        5818.39      1.06639e+7 
        5833.38      1.06314e+7 
        5848.38      1.05988e+7 
        5863.37      1.05662e+7 
        5878.37      1.05336e+7 
        5893.36       1.0501e+7 
        5908.36      1.04684e+7 
        5923.36      1.04357e+7 
        5938.35       1.0403e+7 
        5953.35      1.03704e+7 
        5968.34      1.03377e+7 
        5983.34       1.0305e+7 
        5998.34      1.02723e+7 
        6013.33      1.02396e+7 
        6028.33      1.02068e+7 
        6043.32       1.0174e+7 
        6058.32      1.01413e+7 
        6073.32      1.01085e+7 
        6088.31      1.00758e+7 
        6103.31       1.0043e+7 
         6118.3      1.00103e+7 
         6133.3      9.97757e+6 
         6148.3      9.94487e+6 
        6163.29      9.91213e+6 
        6178.29      9.87943e+6 
        6193.28      9.84673e+6 
        6208.28      9.81399e+6 
        6223.28      9.78129e+6 
        6238.27      9.74858e+6 
        6252.16      9.71827e+6 
        6262.16       9.6964e+6 
        6273.26      9.67215e+6 
        6284.63       9.6473e+6 
        6295.99      9.62238e+6 
        6306.09      9.60027e+6 
        6316.22      9.57799e+6 
        6328.25      9.55151e+6 
        6343.24      9.51837e+6 
        6358.24      9.48503e+6 
        6373.23      9.45148e+6 
        6388.23      9.41752e+6 
        6403.23      9.38309e+6 
        6418.22       9.3479e+6 
        6433.22      9.31159e+6 
        6448.22      9.27351e+6 
        6463.21      9.23261e+6 
        6478.21      9.18677e+6 
         6493.2       9.1316e+6 
         6508.2      9.05687e+6 
        6523.19      8.93416e+6 
        6537.09      8.69269e+6 
        6548.06      8.19761e+6 
        6558.19      6.61465e+6 
        6568.58      6.93764e+6 
        6579.13      8.25023e+6 
        6590.04      8.62807e+6 
        6603.34      8.78301e+6 
        6613.66        8.827e+6 
        6623.98      8.84352e+6 
         6634.3      8.84588e+6 
        6654.94      8.82992e+6 
        6675.58      8.80117e+6 
        6711.48      8.73928e+6 
        6741.75      8.68258e+6 
        6783.26      8.60209e+6 
        6824.78      8.52034e+6 
        6907.81      8.35723e+6 
        6990.84      8.19481e+6 
         7038.6      8.10204e+6 
        7073.87       8.0339e+6 
        7109.15      7.96607e+6 
        7179.69      7.83281e+6 
        7250.24      7.70095e+6 
        7320.78      7.57064e+6 
        7389.14      7.44623e+6 
        7406.65      7.41476e+6 
        7424.15      7.38343e+6 
        7459.17      7.32107e+6 
         7529.2      7.19761e+6 
        7599.23      7.07575e+6 
        7660.63      6.97022e+6 
        7677.88      6.94081e+6 
        7695.14      6.91179e+6 
        7729.65      6.85401e+6 
        7798.67      6.73966e+6 
        7867.69      6.62691e+6 
        7911.17      6.55669e+6 
        7936.71      6.51576e+6 
        7962.25      6.47504e+6 
        8013.32      6.39477e+6 
        8046.24       6.3435e+6 
         8064.4      6.31539e+6 
        8082.55       6.2874e+6 
        8118.86      6.23191e+6 
        8180.09      6.13936e+6 
        8191.47       6.1223e+6 
        8202.85      6.10528e+6 
        8216.85      6.08451e+6 
        8232.84      6.06082e+6 
        8264.83      6.01376e+6 
        8289.72      5.97735e+6 
        8328.82      5.92058e+6 
        8343.44      5.89947e+6 
        8367.92      5.86429e+6 
        8388.68      5.83475e+6 
        8408.65      5.80648e+6 
        8432.02      5.77356e+6 
        8467.25      5.72423e+6 
        8502.48      5.67532e+6 
        8516.58       5.6559e+6 
        8530.98      5.63608e+6 
        8545.38      5.61641e+6 
        8574.18      5.57749e+6 
        8598.39      5.54479e+6 
         8628.6      5.50448e+6 
        8646.81      5.48026e+6 
        8665.01      5.45594e+6 
        8685.59      5.42902e+6 
        8701.43      5.40819e+6 
        8750.47      5.34385e+6 
        8767.92       5.3217e+6 
        8815.35      5.26082e+6 
        8862.78      5.20025e+6 
        8900.38      5.15447e+6 
        8957.65      5.08401e+6 
        9014.91      5.01194e+6 
        9044.62       4.9787e+6 
        9072.17      4.94593e+6 
        9099.72      4.91329e+6 
        9154.81      4.84924e+6 
         9190.8      4.80764e+6 
         9209.9      4.78518e+6 
        9229.01      4.75725e+6 
        9267.22      4.72097e+6 
        9305.43      4.67846e+6 
        9379.63      4.59662e+6 
        9397.45      4.57727e+6 
        9415.28      4.55807e+6 
        9450.94      4.51987e+6 
        9498.52      4.46901e+6 
        9522.24      4.44271e+6 
         9534.1      4.42738e+6 
        9545.97       4.4014e+6 
        9557.83      4.40266e+6 
        9569.68       4.3933e+6 
        9581.55      4.38202e+6 
        9605.27      4.35824e+6 
        9636.96      4.32607e+6 
        9652.71      4.31011e+6 
        9668.45      4.29418e+6 
        9699.94      4.26283e+6 
        9762.91      4.20075e+6 
        9825.88      4.13958e+6 
        9888.86       4.0793e+6 
        9950.84      4.02067e+6 
        9966.69      4.00588e+6 
        9979.12      3.99422e+6 
        9996.68      3.97763e+6 
        10014.2      3.96039e+6 
        10031.8      3.93975e+6 
          10045      3.90965e+6 
        10055.9      3.90522e+6 
        10073.5      3.90465e+6 
        10091.1      3.89152e+6 
        10126.2      3.86139e+6 
        10155.7      3.83557e+6 
        10196.4      3.79994e+6 
        10237.2      3.76457e+6 
        10318.7      3.69652e+6 
        10400.2       3.6297e+6 
        10481.7      3.56411e+6 
        10563.3       3.4998e+6 
        10644.8      3.43665e+6 
        10726.3       3.3747e+6 
        10807.8      3.31372e+6 
        10840.6      3.28931e+6 
          10865      3.27096e+6 
        10877.2      3.26154e+6 
        10889.4      3.25174e+6 
        10901.5      3.24099e+6 
        10913.7      3.22748e+6 
        10925.9      3.20342e+6 
        10936.6      3.14079e+6 
        10949.5      3.18457e+6 
        10961.7      3.19255e+6 
        10973.9      3.18897e+6 
        10986.1      3.18246e+6 
        10998.2      3.17492e+6 
        11022.6      3.15878e+6 
        11071.3      3.12545e+6 
        11168.8      3.05905e+6 
        11260.9      2.99755e+6 
          11353      2.93978e+6 
        11445.1      2.88321e+6 
        11537.2      2.82777e+6 
        11629.3      2.77347e+6 
        11721.4      2.72029e+6 
        11813.5      2.66821e+6 
        11905.6      2.61722e+6 
        11997.7      2.56728e+6 
        12089.8      2.51836e+6 
        12181.9      2.47049e+6 
        12263.3        2.429e+6 
          12274      2.42362e+6 
        12284.6      2.41826e+6 
          12306      2.40806e+6 
        12348.7       2.3878e+6 
        12434.1      2.34779e+6 
        12519.5      2.30845e+6 
        12604.8      2.26967e+6 
        12690.2       2.2309e+6 
        12733.2      2.21032e+6 
        12754.4      2.19874e+6 
          12765      2.19192e+6 
        12775.6      2.18354e+6 
        12786.2      2.17187e+6 
        12796.8      2.15194e+6 
        12807.5      2.10618e+6 
          12818      1.95893e+6 
        12830.8      2.10836e+6 
        12843.6      2.13915e+6 
        12856.4      2.14622e+6 
        12875.6      2.14542e+6 
        12901.2      2.13821e+6 
        12926.8      2.12895e+6 
          12978      2.10882e+6 
        13029.2      2.08822e+6 
        13080.3      2.06764e+6 
        13131.5      2.04719e+6 
        13182.7      2.02692e+6 
        13233.9      2.00686e+6 
        13261.8        1.996e+6 
        13285.1      1.98701e+6 
        13308.4      1.97806e+6 
        13354.9      1.96121e+6 
        13447.9      1.92794e+6 
          13541      1.89525e+6 
          13634      1.86318e+6 
        13727.1      1.83164e+6 
        13820.1      1.80069e+6 
        13913.2      1.77029e+6 
        14006.2      1.74045e+6 
        14099.2      1.71116e+6 
        14192.3       1.6824e+6 
        14238.6      1.66828e+6 
        14285.3      1.65417e+6 
        14332.1      1.64019e+6 
        14393.4      1.62253e+6 
        14425.5      1.61336e+6 
        14457.6      1.60425e+6 
        14521.9       1.5863e+6 
        14581.2      1.56989e+6 
        14597.2      1.56555e+6 
