# Koester WD models
# teff = 6000 K (value for the effective temperature for the model. Temperatures are given in K)
# logg = 7.75 log(cm/s2) (value for Log(G) for the model.)
#
# column 1: WAVELENGTH (ANGSTROM), Wavelength in Angstrom
# column 2: FLUX (ERG/CM2/S/A), Flux in erg/cm2/s/A
         899.23       0.0306348 
        909.241       0.0416424 
        919.251       0.0567296 
        929.261       0.0777365 
        939.271        0.112228 
         949.28        0.132523 
        959.289        0.227997 
        969.297        0.314539 
        979.305        0.436383 
        989.312        0.581537 
        999.319        0.759053 
        1009.33        0.976376 
        1019.33         1.21571 
        1029.34          1.4879 
        1039.34         1.98187 
        1049.35         2.46901 
        1059.36          3.0581 
        1069.36         3.75929 
        1079.36         4.61324 
        1089.37         5.61553 
        1099.37         6.82668 
        1109.38         8.23801 
        1119.38         9.97311 
        1129.38         11.9869 
        1139.39          14.287 
        1149.39         16.8404 
        1159.39         19.3582 
        1169.39         21.5199 
         1179.4         23.3549 
         1189.4         26.6998 
         1199.4         31.0371 
         1209.4         34.9166 
        1219.41         40.3911 
        1229.41         51.3314 
        1239.41         60.9654 
        1249.41          71.366 
        1259.41         83.2739 
        1269.41         98.5637 
        1279.42         116.781 
        1289.42         136.427 
        1299.42         157.692 
        1309.42         181.821 
        1319.42         207.987 
        1329.42         238.254 
        1339.42         270.942 
        1349.42         307.498 
        1359.42         349.402 
        1369.42         394.059 
        1379.42         443.687 
        1389.42         499.677 
        1399.42         561.283 
        1409.42         627.539 
        1419.42         701.342 
        1429.42         782.307 
        1439.42         869.301 
        1454.42          1018.7 
        1464.42         1131.88 
        1474.42         1251.79 
        1489.42         1440.63 
        1504.42         1657.03 
        1514.42         1830.89 
        1529.42         2125.69 
        1544.42         2434.95 
        1559.42         2731.12 
        1570.19          2959.3 
        1584.41         3305.55 
        1599.41         3722.35 
        1614.41         4245.86 
        1629.41         4939.46 
        1644.41         5821.12 
        1659.41          6854.2 
        1670.17         7689.52 
         1684.4         8920.05 
         1699.4         10479.3 
         1714.4         12164.8 
         1729.4         13987.8 
         1744.4         15876.8 
        1759.39         17719.7 
         1771.7         19317.5 
        1784.39         21237.3 
        1799.39         23731.6 
        1819.38         27289.5 
        1834.77         30294.8 
        1845.54         32531.8 
         1856.3         35100.4 
        1867.07           37729 
        1882.44         41801.1 
        1894.73         45401.7 
        1907.03           49312 
        1919.18         53494.4 
        1931.21         57805.3 
        1943.24         63219.2 
        1953.98         68248.6 
        1968.59         74763.9 
         1983.2         81815.9 
        1997.81         89488.6 
        2012.42         97891.7 
         2023.2          105046 
        2033.97          112816 
        2050.14          123731 
        2060.91          131549 
        2073.15          141210 
         2091.5          157194 
        2103.73          168722 
        2115.68          180691 
        2127.16          193059 
        2138.63          208065 
           2157          230263 
        2173.95          252377 
         2190.9          276091 
        2201.01          291129 
         2214.7          312693 
        2228.38          334583 
        2242.07          357721 
        2255.76          382310 
        2265.95          405463 
        2276.14          432157 
        2288.08          462939 
        2300.61          497292 
        2313.13          534080 
        2325.66          565983 
        2347.59          626616 
        2357.87          657240 
         2375.8          712655 
        2385.94          745440 
         2401.5          799023 
        2417.05          856756 
        2440.38          955176 
        2451.59      1.00169e+6 
        2465.39        1.068e+6 
        2479.19      1.13705e+6 
        2497.59      1.23457e+6 
        2510.01      1.30414e+6 
        2522.44      1.36986e+6 
        2534.87      1.43799e+6 
        2547.05      1.50699e+6 
        2559.23      1.57808e+6 
        2571.41       1.6658e+6 
         2583.6      1.75694e+6 
        2595.78      1.85168e+6 
        2607.96      1.95982e+6 
        2620.14       2.0596e+6 
        2632.32      2.16117e+6 
         2644.5      2.26597e+6 
         2655.7      2.36516e+6 
        2671.46      2.48072e+6 
        2687.21      2.59485e+6 
        2718.72      2.82947e+6 
        2744.37      3.02634e+6 
        2756.11      3.11791e+6 
        2767.85       3.2124e+6 
        2791.33      3.40417e+6 
        2822.05      3.66002e+6 
         2838.3      3.79859e+6 
        2854.55      3.93686e+6 
        2887.05      4.21897e+6 
        2951.11      4.78647e+6 
         2966.1      4.91009e+6 
        2981.09      5.03236e+6 
        3011.06      5.27678e+6 
        3051.42      5.60504e+6 
        3091.78      5.94996e+6 
        3114.42      6.14269e+6 
        3132.14      6.29264e+6 
        3149.86      6.43891e+6 
         3185.3      6.73089e+6 
         3216.8      6.98759e+6 
        3232.55      7.11483e+6 
        3248.29      7.24115e+6 
        3264.04      7.33399e+6 
        3279.79      7.42578e+6 
        3295.54      7.51661e+6 
        3311.29      7.60642e+6 
        3338.85      7.76112e+6 
        3354.61      7.84723e+6 
        3370.38       7.9312e+6 
        3401.92       8.0961e+6 
        3445.17      8.31542e+6 
        3488.42      8.51629e+6 
        3519.73      8.65534e+6 
        3531.66      8.70724e+6 
         3543.6      8.75857e+6 
        3567.48      8.85606e+6 
        3591.28      8.95087e+6 
        3638.83      9.12969e+6 
        3648.96      9.16629e+6 
         3663.4      9.21775e+6 
        3673.95      9.25447e+6 
         3684.5      9.29051e+6 
         3695.3       9.3267e+6 
        3705.37      9.35981e+6 
        3715.64      9.39292e+6 
        3725.75      9.42333e+6 
        3735.82      9.45161e+6 
        3746.45      9.48114e+6 
        3757.47      9.51133e+6 
        3768.55      9.53992e+6 
        3778.93      9.56907e+6 
        3790.45      9.59882e+6 
        3800.56      9.62006e+6 
        3811.59      9.65697e+6 
        3822.57      9.68484e+6 
        3832.73      9.67384e+6 
        3842.75      9.73347e+6 
        3853.31      9.77023e+6 
        3863.68      9.79743e+6 
        3873.85      9.81814e+6 
         3884.4       9.7794e+6 
        3894.46      9.81955e+6 
        3908.89      9.90893e+6 
        3923.89      9.94773e+6 
        3935.81      9.97437e+6 
        3946.58      9.99372e+6 
        3957.31      9.99463e+6 
        3967.38       9.6893e+6 
        3977.68      9.98681e+6 
        3988.87      1.00768e+7 
        3999.98      1.01073e+7 
        4010.55      1.01295e+7 
        4020.61      1.01488e+7 
        4032.31      1.01696e+7 
        4042.64      1.01868e+7 
        4053.86      1.02039e+7 
        4068.85      1.02225e+7 
        4082.28      1.02243e+7 
        4093.69      1.01215e+7 
        4103.79      9.38221e+6 
        4114.23      1.02318e+7 
        4126.14      1.02964e+7 
        4138.83      1.03232e+7 
        4153.83      1.03456e+7 
        4168.82      1.03646e+7 
        4183.82      1.03818e+7 
        4198.82      1.03976e+7 
        4213.81      1.04123e+7 
        4224.95      1.04226e+7 
        4238.81      1.04345e+7 
         4253.8      1.04461e+7 
         4268.8      1.04562e+7 
        4283.79      1.04643e+7 
        4298.79      1.04682e+7 
        4313.79      1.04589e+7 
        4326.14       1.0395e+7 
        4336.17      9.78603e+6 
        4346.28      1.00398e+7 
        4357.43       1.0438e+7 
        4367.98      1.04861e+7 
        4378.77      1.05036e+7 
        4393.77      1.05154e+7 
        4408.76      1.05214e+7 
        4423.76      1.05246e+7 
        4438.75      1.05266e+7 
        4453.75      1.05278e+7 
        4468.74      1.05282e+7 
        4483.74       1.0528e+7 
        4498.74      1.05296e+7 
        4513.73      1.05304e+7 
        4527.19      1.05305e+7 
        4538.73      1.05301e+7 
        4553.72       1.0529e+7 
        4568.72      1.05272e+7 
        4583.72      1.05246e+7 
        4596.53      1.05219e+7 
        4608.71      1.05185e+7 
         4623.7      1.05137e+7 
         4638.7      1.05084e+7 
         4653.7      1.05026e+7 
        4668.69      1.04962e+7 
        4683.69      1.04893e+7 
        4698.68      1.04817e+7 
        4713.68      1.04734e+7 
        4724.83      1.04669e+7 
        4738.67      1.04583e+7 
        4753.67      1.04482e+7 
        4768.67      1.04372e+7 
        4783.66      1.04247e+7 
        4798.66      1.04096e+7 
        4813.65      1.03889e+7 
        4828.65      1.03516e+7 
        4839.16      1.02886e+7 
        4849.39      1.00693e+7 
         4859.6      7.67588e+6 
        4869.86      9.83692e+6 
        4880.19      1.02226e+7 
        4893.63      1.03009e+7 
        4908.63      1.03146e+7 
         4921.7      1.03123e+7 
        4933.62       1.0306e+7 
        4948.62      1.02955e+7 
        4963.61      1.02834e+7 
        4978.61      1.02703e+7 
        4993.61      1.02565e+7 
         5008.6       1.0242e+7 
         5023.6      1.02271e+7 
        5038.59      1.02118e+7 
        5053.59      1.01961e+7 
        5068.59      1.01801e+7 
        5083.58      1.01638e+7 
        5098.58      1.01471e+7 
        5113.57      1.01302e+7 
        5128.57       1.0113e+7 
        5143.57      1.00955e+7 
        5158.56      1.00778e+7 
        5173.56      1.00599e+7 
        5188.55      1.00417e+7 
        5203.55      1.00233e+7 
        5218.55      1.00046e+7 
        5233.54      9.98574e+6 
        5248.54      9.96667e+6 
        5263.53      9.94741e+6 
        5278.53      9.92806e+6 
        5293.52      9.90874e+6 
        5308.52      9.88923e+6 
        5323.52       9.8695e+6 
        5338.51      9.84958e+6 
        5353.51      9.82948e+6 
        5368.51      9.80931e+6 
         5383.5      9.78857e+6 
         5398.5      9.76762e+6 
        5413.49      9.74651e+6 
        5428.49      9.72524e+6 
        5443.48      9.70381e+6 
        5458.48      9.68226e+6 
        5473.48      9.66065e+6 
        5488.47        9.639e+6 
        5503.47      9.61723e+6 
        5518.47      9.59534e+6 
        5533.46      9.57328e+6 
        5548.46      9.55113e+6 
        5563.45      9.52883e+6 
        5578.45       9.5064e+6 
        5593.44      9.48387e+6 
        5608.44      9.46122e+6 
        5623.44      9.43844e+6 
        5638.43      9.41557e+6 
        5653.43      9.39261e+6 
        5668.43      9.36989e+6 
        5682.86      9.34759e+6 
        5693.42      9.33122e+6 
        5704.77      9.31357e+6 
        5715.23      9.29723e+6 
        5728.41      9.27662e+6 
         5743.4      9.25309e+6 
         5758.4      9.22947e+6 
         5773.4      9.20509e+6 
        5788.39      9.18127e+6 
        5803.39       9.1574e+6 
        5818.39      9.13346e+6 
        5833.38      9.10946e+6 
        5848.38      9.08536e+6 
        5863.37      9.06123e+6 
        5878.37      9.03704e+6 
        5893.36      9.01279e+6 
        5908.36      8.98844e+6 
        5923.36      8.96409e+6 
        5938.35      8.93965e+6 
        5953.35      8.91518e+6 
        5968.34      8.89064e+6 
        5983.34      8.86608e+6 
        5998.34      8.84145e+6 
        6013.33      8.81672e+6 
        6028.33      8.79197e+6 
        6043.32      8.76715e+6 
        6058.32      8.74233e+6 
        6073.32      8.71745e+6 
        6088.31      8.69254e+6 
        6103.31      8.66759e+6 
         6118.3      8.64262e+6 
         6133.3      8.61761e+6 
         6148.3      8.59254e+6 
        6163.29      8.56747e+6 
        6178.29      8.54237e+6 
        6193.28       8.5173e+6 
        6208.28      8.49213e+6 
        6223.28      8.46691e+6 
        6238.27      8.44165e+6 
        6252.16      8.41824e+6 
        6262.16      8.40134e+6 
        6273.26      8.38255e+6 
        6284.63       8.3633e+6 
        6295.99      8.34401e+6 
        6306.09      8.32682e+6 
        6316.22      8.30954e+6 
        6328.25      8.28897e+6 
        6343.24      8.26317e+6 
        6358.24      8.23726e+6 
        6373.23      8.21109e+6 
        6388.23      8.18463e+6 
        6403.23      8.15781e+6 
        6418.22      8.13038e+6 
        6433.22       8.1021e+6 
        6448.22      8.07254e+6 
        6463.21      8.04084e+6 
        6478.21      8.00547e+6 
         6493.2      7.96318e+6 
         6508.2      7.90629e+6 
        6523.19      7.81305e+6 
         6536.1      7.64755e+6 
        6546.46      7.32494e+6 
        6556.84      6.26302e+6 
        6566.99      5.82693e+6 
        6577.23      7.18184e+6 
        6587.91      7.53963e+6 
        6598.17      7.66178e+6 
         6608.5      7.71204e+6 
        6623.98      7.73561e+6 
         6634.3      7.73614e+6 
        6644.62      7.73074e+6 
        6665.26      7.71063e+6 
        6701.62      7.66219e+6 
        6721.34      7.63306e+6 
         6736.2      7.61048e+6 
        6780.49      7.54146e+6 
        6824.78      7.47112e+6 
        6913.35       7.3304e+6 
        7001.93      7.18979e+6 
        7071.86      7.07936e+6 
         7090.5      7.05002e+6 
        7109.15      7.02074e+6 
        7146.44      6.96287e+6 
        7221.02      6.84786e+6 
         7295.6      6.73382e+6 
        7346.84      6.65606e+6 
        7370.18      6.62113e+6 
        7393.51        6.586e+6 
        7440.19      6.51673e+6 
        7533.55       6.3796e+6 
        7575.92      6.31796e+6 
         7626.9      6.24439e+6 
        7677.88      6.17138e+6 
        7728.86      6.09965e+6 
        7779.84      6.02856e+6 
        7830.82      5.95806e+6 
         7881.8      5.88816e+6 
        7903.32      5.85885e+6 
        7932.78      5.81892e+6 
        7962.25      5.77918e+6 
        8021.18      5.70083e+6 
        8077.68       5.6265e+6 
        8097.18      5.60111e+6 
        8108.49      5.58641e+6 
        8155.67      5.52556e+6 
        8200.85      5.46778e+6 
        8216.85      5.44752e+6 
        8232.84      5.42732e+6 
        8264.83      5.38717e+6 
        8289.72      5.35607e+6 
        8328.82      5.30756e+6 
        8343.44       5.2895e+6 
        8367.92       5.2594e+6 
        8388.68      5.23411e+6 
        8408.65      5.20989e+6 
        8432.02      5.18168e+6 
        8467.25      5.13939e+6 
        8502.48      5.09739e+6 
        8516.58      5.08068e+6 
        8530.98      5.06365e+6 
        8545.38      5.04678e+6 
        8574.18      5.01326e+6 
        8598.39      4.98517e+6 
         8628.6       4.9504e+6 
        8646.81       4.9295e+6 
        8665.01      4.90864e+6 
        8685.59       4.8853e+6 
        8701.43      4.86736e+6 
        8750.47      4.81201e+6 
        8767.92      4.79266e+6 
        8815.35         4.74e+6 
        8862.78      4.68804e+6 
        8900.38      4.64783e+6 
        8957.65      4.58669e+6 
        9014.91      4.52546e+6 
        9044.62      4.49524e+6 
        9072.17      4.46665e+6 
        9099.72      4.43825e+6 
        9154.81      4.38243e+6 
         9190.8      4.34627e+6 
         9209.9      4.32698e+6 
        9229.01      4.30584e+6 
        9267.22      4.27056e+6 
         9303.2      4.23546e+6 
        9343.64      4.19626e+6 
        9384.08       4.1574e+6 
        9464.96      4.08134e+6 
        9545.72          4.0e+6 
        9561.21       3.9912e+6 
        9576.69      3.97817e+6 
        9607.66      3.95055e+6 
        9668.45      3.89627e+6 
        9729.24      3.84311e+6 
        9790.04      3.79065e+6 
        9850.83       3.7389e+6 
        9870.42      3.72235e+6 
        9911.62      3.68782e+6 
        9952.82      3.65358e+6 
        10021.1      3.59668e+6 
        10035.2      3.58245e+6 
        10045.8       3.5659e+6 
        10056.4      3.56115e+6 
        10070.6      3.55609e+6 
        10084.7      3.54632e+6 
          10113      3.52465e+6 
        10169.6      3.48057e+6 
        10215.2      3.44529e+6 
        10226.2      3.43687e+6 
        10237.2      3.42842e+6 
        10259.2      3.41205e+6 
        10303.1      3.37947e+6 
          10391      3.31532e+6 
        10478.8      3.25237e+6 
        10566.7      3.19063e+6 
        10654.6      3.13012e+6 
        10742.4      3.07077e+6 
        10830.3      3.01242e+6 
        10898.2      2.96643e+6 
        10918.2       2.9489e+6 
        10933.1      2.91914e+6 
        10944.3      2.91529e+6 
        10955.5      2.92361e+6 
        10985.4      2.91141e+6 
        11005.3      2.89961e+6 
        11025.2      2.88743e+6 
        11065.1      2.86286e+6 
        11144.8      2.81403e+6 
          11188      2.78788e+6 
        11224.4      2.76601e+6 
        11260.9      2.74432e+6 
        11333.8      2.70315e+6 
        11406.8      2.66263e+6 
        11479.7      2.62275e+6 
        11552.6      2.58348e+6 
        11625.6      2.54484e+6 
        11698.5      2.50682e+6 
        11771.4       2.4694e+6 
        11844.4      2.43259e+6 
        11917.3      2.39638e+6 
        11990.2      2.36074e+6 
        12063.2      2.32567e+6 
        12136.1      2.29118e+6 
          12209      2.25724e+6 
        12279.3      2.22508e+6 
          12290      2.22032e+6 
        12300.7      2.21568e+6 
        12322.2      2.20644e+6 
        12365.2      2.18807e+6 
          12451      2.15181e+6 
        12536.9      2.11614e+6 
        12622.8      2.08098e+6 
        12665.8       2.0635e+6 
        12708.7      2.04586e+6 
        12730.2      2.03677e+6 
        12751.7      2.02708e+6 
        12771.2      2.01677e+6 
        12782.9      2.00851e+6 
        12794.6      1.99557e+6 
        12806.3      1.96717e+6 
          12818      1.88897e+6 
        12830.8      1.96106e+6 
        12843.6      1.97868e+6 
        12862.8      1.98073e+6 
        12875.6      1.97809e+6 
        12901.2      1.97029e+6 
        12952.4       1.9521e+6 
        13003.6      1.93328e+6 
        13054.8      1.91446e+6 
        13105.9      1.89577e+6 
        13157.1      1.87725e+6 
        13208.3      1.85891e+6 
        13259.5      1.84077e+6 
        13308.4      1.82363e+6 
        13406.1      1.79165e+6 
        13503.8      1.76028e+6 
        13601.5      1.72964e+6 
        13699.2      1.69965e+6 
        13796.9       1.6702e+6 
        13894.6       1.6413e+6 
        13992.3      1.61294e+6 
          14090      1.58515e+6 
        14187.7      1.55789e+6 
        14238.8      1.54384e+6 
        14285.4      1.53114e+6 
        14332.1      1.51855e+6 
          14393      1.50277e+6 
        14425.3      1.49447e+6 
        14457.6      1.48622e+6 
        14522.3      1.46997e+6 
        14581.2       1.4553e+6 
        14597.2      1.45141e+6 
        14613.2      1.44755e+6 
        14645.2      1.43985e+6 
        14709.2      1.42458e+6 
        14773.2      1.40947e+6 
        14837.1      1.39451e+6 
        14901.1      1.37971e+6 
        14965.1      1.36505e+6 
        15029.1      1.35055e+6 
        15093.1      1.33622e+6 
