# Koester WD models
# teff = 6000 K (value for the effective temperature for the model. Temperatures are given in K)
# logg = 7.5 log(cm/s2) (value for Log(G) for the model.)
#
# column 1: WAVELENGTH (ANGSTROM), Wavelength in Angstrom
# column 2: FLUX (ERG/CM2/S/A), Flux in erg/cm2/s/A
         899.23       0.0275762 
        909.241       0.0375282 
        919.251       0.0516286 
        929.261       0.0704339 
        939.271        0.103737 
         949.28        0.119953 
        959.289        0.216057 
        969.297        0.298974 
        979.305        0.415862 
        989.312        0.555437 
        999.319         0.72639 
        1009.33        0.935887 
        1019.33         1.16586 
        1029.34         1.42505 
        1039.34         1.90956 
        1049.35         2.38158 
        1059.36          2.9518 
        1069.36         3.63093 
        1079.36         4.45792 
        1089.37         5.42883 
        1099.37         6.60218 
        1109.38          7.9694 
        1119.38         9.65151 
        1129.38         11.6041 
        1139.39         13.8353 
        1149.39         16.3108 
        1159.39         18.7525 
        1169.39         20.8345 
         1179.4         22.4714 
         1189.4         25.5507 
         1199.4         29.6226 
         1209.4         32.9748 
        1219.41         38.0337 
        1229.41         49.3032 
        1239.41         58.7553 
        1249.41         68.8709 
        1259.41         80.4593 
        1269.41         95.4532 
        1279.42         113.289 
        1289.42         132.457 
        1299.42         153.151 
        1309.42         176.648 
        1319.42         202.123 
        1329.42         231.612 
        1339.42         263.448 
        1349.42         299.062 
        1359.42         339.905 
        1369.42         383.419 
        1379.42         431.802 
        1389.42           486.4 
        1399.42         546.464 
        1409.42         611.068 
        1419.42         683.086 
        1429.42         762.113 
        1439.42         846.995 
        1454.42         992.787 
        1464.42         1103.34 
        1474.42         1220.48 
        1489.42         1404.83 
        1504.42         1616.01 
        1514.42         1785.95 
        1529.42         2074.34 
        1544.42         2376.73 
        1559.42         2665.72 
        1570.19         2887.92 
        1584.41         3224.94 
        1599.41         3631.15 
        1614.41         4144.04 
        1629.41         4826.37 
        1644.41         5692.75 
        1659.41         6708.97 
        1670.17          7535.2 
         1684.4         8763.94 
         1699.4           10342 
         1714.4         12072.4 
         1729.4         13960.8 
         1744.4           15926 
        1759.39           17806 
         1771.7         19433.9 
        1781.89         20997.9 
        1794.39         23161.9 
        1809.39           25832 
           1824           28682 
        1834.77         30914.5 
        1845.54         33252.8 
         1856.3         36018.4 
        1870.14         39641.9 
        1887.06         44633.2 
        1903.97         50250.1 
        1919.37           56030 
        1929.77         60070.4 
        1939.85         65459.2 
        1949.92         70834.4 
        1960.54         75977.5 
        1970.81         81290.6 
        1984.16           88706 
        2001.96           99607 
        2014.33          107963 
        2024.77          116601 
         2035.2          125492 
        2045.63          133714 
        2059.54          145426 
        2074.52          159319 
        2089.51          174725 
        2104.49          191622 
        2116.25          205910 
        2126.92          219834 
        2137.58          237338 
        2154.65          262659 
        2165.47          279451 
         2176.3          296899 
        2187.12          315391 
        2197.95          334916 
        2208.78          355613 
        2226.53          390814 
        2238.36          415410 
         2250.2          441340 
        2260.49          465776 
        2270.77          501342 
        2281.05          533857 
        2294.77          579922 
        2308.48          629362 
        2322.44          676605 
        2338.36          729874 
        2350.36          772383 
        2362.35          817012 
        2374.35          861887 
        2386.35          908907 
        2398.34          958396 
        2409.27      1.00549e+6 
         2420.2      1.05597e+6 
        2431.14      1.11498e+6 
        2442.07      1.16583e+6 
           2453      1.21828e+6 
        2465.39      1.28711e+6 
        2479.19      1.36484e+6 
        2497.59      1.47397e+6 
        2510.01      1.55153e+6 
        2522.44      1.62388e+6 
        2534.87       1.6985e+6 
        2547.05      1.77376e+6 
        2559.23      1.85103e+6 
        2571.41      1.94551e+6 
         2583.6      2.04319e+6 
        2601.87      2.20043e+6 
        2614.05      2.31719e+6 
        2626.23      2.42087e+6 
        2638.41      2.52716e+6 
        2652.86      2.65701e+6 
         2667.3       2.7707e+6 
        2681.74      2.87698e+6 
        2710.63      3.09438e+6 
        2742.18      3.33892e+6 
        2756.11      3.44906e+6 
        2770.04      3.56216e+6 
        2797.91      3.79184e+6 
        2825.78      4.02617e+6 
        2852.75       4.2595e+6 
        2867.15      4.37985e+6 
        2881.55      4.50124e+6 
        2910.36      4.74582e+6 
        2931.67      4.92837e+6 
        2952.98      5.11216e+6 
         2974.3      5.28039e+6 
        2995.61      5.44859e+6 
        3016.92      5.61667e+6 
        3038.24      5.78436e+6 
        3051.42      5.88797e+6 
        3077.79      6.10226e+6 
        3111.18      6.37241e+6 
        3128.77      6.51507e+6 
        3149.86      6.67698e+6 
        3188.53      6.96896e+6 
        3218.41      7.19148e+6 
        3233.35      7.30163e+6 
        3248.29      7.41092e+6 
        3263.24      7.49499e+6 
        3278.18      7.57806e+6 
        3293.12      7.66033e+6 
        3308.06      7.74161e+6 
        3329.15      7.85486e+6 
        3346.73      7.94782e+6 
        3364.31      8.03739e+6 
        3399.48      8.21253e+6 
        3445.17      8.43222e+6 
        3490.85      8.63263e+6 
        3529.48      8.79096e+6 
         3543.6      8.84729e+6 
        3557.73      8.90114e+6 
        3580.68      8.98678e+6 
        3591.28      9.02554e+6 
        3601.89      9.06321e+6 
        3623.09       9.1372e+6 
        3635.88      9.18096e+6 
        3647.12       9.2185e+6 
        3658.96      9.25761e+6 
        3671.11      9.29682e+6 
        3682.58      9.33311e+6 
         3693.5      9.36697e+6 
        3703.57      9.39729e+6 
        3713.83       9.4282e+6 
        3724.38      9.45824e+6 
        3734.43      9.47731e+6 
        3744.62       9.5118e+6 
        3754.84      9.53847e+6 
        3765.07      9.56467e+6 
         3775.5      9.59216e+6 
        3786.22      9.62132e+6 
        3796.45      9.61516e+6 
        3807.84      9.68041e+6 
        3818.92      9.71113e+6 
        3830.45      9.71252e+6 
        3840.76      9.74544e+6 
        3851.98      9.80246e+6 
        3862.01      9.82979e+6 
        3872.59      9.85115e+6 
         3884.4      9.78851e+6 
        3894.99      9.84754e+6 
        3906.47      9.93431e+6 
        3918.01      9.96604e+6 
        3928.33      9.98964e+6 
        3938.55      1.00099e+7 
        3948.88      1.00245e+7 
        3960.58      9.99966e+6 
        3970.61      8.78182e+6 
         3980.9      1.00517e+7 
        3991.38      1.01057e+7 
        4003.87      1.01351e+7 
        4018.86      1.01623e+7 
        4032.38      1.01843e+7 
        4043.86      1.02013e+7 
        4058.85      1.02211e+7 
        4073.85      1.02343e+7 
           4084      1.02282e+7 
        4094.68       1.0091e+7 
        4104.98      9.68855e+6 
        4115.15      1.02441e+7 
        4126.14      1.02964e+7 
        4138.83      1.03209e+7 
        4153.83      1.03408e+7 
        4168.82      1.03575e+7 
        4183.82      1.03726e+7 
        4198.82      1.03863e+7 
        4213.81       1.0399e+7 
        4224.95      1.04078e+7 
        4238.81       1.0418e+7 
         4253.8      1.04278e+7 
         4268.8      1.04363e+7 
        4283.79       1.0443e+7 
        4298.79      1.04458e+7 
        4313.79      1.04367e+7 
        4326.14      1.03776e+7 
        4336.17      9.78578e+6 
        4346.97      1.01099e+7 
        4357.43      1.04154e+7 
        4367.98      1.04587e+7 
        4378.77      1.04739e+7 
        4393.77      1.04837e+7 
        4408.76      1.04885e+7 
        4423.76      1.04909e+7 
        4438.75      1.04921e+7 
        4453.75      1.04925e+7 
        4468.74      1.04923e+7 
        4483.74      1.04913e+7 
        4498.74      1.04964e+7 
        4513.73      1.04957e+7 
        4527.19      1.04945e+7 
        4538.73       1.0493e+7 
        4553.72      1.04904e+7 
        4568.72      1.04873e+7 
        4583.72      1.04836e+7 
        4596.53      1.04798e+7 
        4608.71      1.04756e+7 
         4623.7        1.047e+7 
         4638.7      1.04638e+7 
         4653.7      1.04571e+7 
        4668.69        1.045e+7 
        4683.69      1.04423e+7 
        4698.68       1.0434e+7 
        4713.68      1.04252e+7 
        4724.83      1.04182e+7 
        4738.67      1.04092e+7 
        4753.67      1.03986e+7 
        4768.67      1.03873e+7 
        4783.66      1.03746e+7 
        4798.66      1.03597e+7 
        4813.65      1.03399e+7 
        4828.65      1.03057e+7 
        4839.16      1.02495e+7 
        4850.22      1.00174e+7 
        4860.28      6.76746e+6 
        4870.86       9.9154e+6 
        4881.27      1.01977e+7 
        4893.63       1.0253e+7 
        4908.63      1.02625e+7 
         4921.7      1.02586e+7 
        4933.62      1.02514e+7 
        4948.62      1.02401e+7 
        4963.61      1.02273e+7 
        4978.61      1.02137e+7 
        4993.61      1.01994e+7 
         5008.6      1.01845e+7 
         5023.6      1.01692e+7 
        5038.59      1.01536e+7 
        5053.59      1.01376e+7 
        5068.59      1.01213e+7 
        5083.58      1.01047e+7 
        5098.58      1.00878e+7 
        5113.57      1.00706e+7 
        5128.57      1.00532e+7 
        5143.57      1.00355e+7 
        5158.56      1.00176e+7 
        5173.56      9.99947e+6 
        5188.55      9.98109e+6 
        5203.55      9.96246e+6 
        5218.55      9.94367e+6 
        5233.54      9.92467e+6 
        5248.54      9.90544e+6 
        5263.53      9.88606e+6 
        5278.53      9.86655e+6 
        5293.52      9.84701e+6 
        5308.52      9.82728e+6 
        5323.52      9.80733e+6 
        5338.51      9.78722e+6 
        5353.51      9.76693e+6 
        5368.51      9.74657e+6 
         5383.5      9.72574e+6 
         5398.5      9.70473e+6 
        5413.49      9.68352e+6 
        5428.49      9.66219e+6 
        5443.48      9.64073e+6 
        5458.48      9.61912e+6 
        5473.48      9.59744e+6 
        5488.47       9.5757e+6 
        5503.47      9.55387e+6 
        5518.47      9.53187e+6 
        5533.46      9.50976e+6 
        5548.46      9.48752e+6 
        5563.45      9.46518e+6 
        5578.45      9.44272e+6 
        5593.44      9.42013e+6 
        5608.44      9.39745e+6 
        5623.44      9.37464e+6 
        5638.43      9.35174e+6 
        5653.43      9.32877e+6 
        5668.43       9.3059e+6 
        5682.86      9.28359e+6 
        5693.42      9.26723e+6 
        5704.77      9.24957e+6 
        5715.23      9.23324e+6 
        5728.41      9.21263e+6 
         5743.4      9.18913e+6 
         5758.4       9.1655e+6 
         5773.4      9.14125e+6 
        5788.39       9.1175e+6 
        5803.39      9.09365e+6 
        5818.39      9.06972e+6 
        5833.38      9.04574e+6 
        5848.38      9.02171e+6 
        5863.37      8.99762e+6 
        5878.37      8.97346e+6 
        5893.36      8.94927e+6 
        5908.36      8.92498e+6 
        5923.36      8.90067e+6 
        5938.35      8.87632e+6 
        5953.35      8.85191e+6 
        5968.34      8.82744e+6 
        5983.34      8.80293e+6 
        5998.34       8.7784e+6 
        6013.33      8.75377e+6 
        6028.33      8.72907e+6 
        6043.32      8.70438e+6 
        6058.32      8.67962e+6 
        6073.32      8.65484e+6 
        6088.31      8.63005e+6 
        6103.31       8.6052e+6 
         6118.3      8.58035e+6 
         6133.3      8.55544e+6 
         6148.3      8.53052e+6 
        6163.29      8.50558e+6 
        6178.29       8.4806e+6 
        6193.28       8.4556e+6 
        6208.28      8.43056e+6 
        6223.28      8.40552e+6 
        6238.27      8.38042e+6 
        6252.16      8.35717e+6 
        6262.16      8.34039e+6 
        6273.26      8.32173e+6 
        6284.63      8.30263e+6 
        6295.99      8.28347e+6 
        6306.09      8.26644e+6 
        6316.22      8.24932e+6 
        6328.25      8.22893e+6 
        6343.24      8.20342e+6 
        6358.24      8.17779e+6 
        6373.23      8.15196e+6 
        6388.23      8.12592e+6 
        6403.23      8.09956e+6 
        6418.22      8.07273e+6 
        6433.22      8.04521e+6 
        6448.22      8.01659e+6 
        6463.21      7.98634e+6 
        6478.21      7.95294e+6 
         6493.2      7.91383e+6 
         6508.2       7.8624e+6 
        6523.19       7.7799e+6 
         6536.1      7.63398e+6 
        6546.46      7.34143e+6 
        6556.84      6.30467e+6 
        6566.99      5.85901e+6 
         6577.3      7.20848e+6 
        6587.91      7.52908e+6 
        6598.17      7.63332e+6 
         6608.5      7.67362e+6 
        6623.98      7.68939e+6 
         6634.3      7.68707e+6 
        6644.62      7.67978e+6 
        6665.26      7.65744e+6 
        6701.62       7.6073e+6 
        6721.34       7.5778e+6 
         6736.2      7.55509e+6 
        6780.49      7.48594e+6 
        6824.78      7.41579e+6 
        6913.35       7.2758e+6 
        7001.93      7.13606e+6 
        7071.86      7.02636e+6 
         7090.5      6.99724e+6 
        7109.15      6.96815e+6 
        7146.44      6.91075e+6 
        7221.02      6.79662e+6 
         7295.6      6.68346e+6 
        7346.84       6.6063e+6 
        7370.18      6.57158e+6 
        7393.51      6.53674e+6 
        7440.19      6.46807e+6 
        7533.55       6.3321e+6 
        7575.92        6.271e+6 
         7626.9      6.19802e+6 
        7677.88      6.12563e+6 
        7728.86      6.05457e+6 
        7779.84      5.98411e+6 
        7830.82      5.91424e+6 
         7881.8      5.84496e+6 
        7903.32       5.8159e+6 
        7932.78      5.77632e+6 
        7962.25      5.73693e+6 
        8021.18       5.6593e+6 
        8077.68      5.58566e+6 
        8097.18      5.56049e+6 
        8108.49      5.54592e+6 
        8155.67      5.48563e+6 
        8200.85      5.42836e+6 
        8216.85      5.40828e+6 
        8232.84       5.3883e+6 
        8264.83       5.3485e+6 
        8289.72      5.31771e+6 
        8328.82      5.26964e+6 
        8343.44      5.25177e+6 
        8367.92      5.22192e+6 
        8388.68      5.19689e+6 
        8408.65      5.17292e+6 
        8432.02      5.14495e+6 
        8467.25      5.10305e+6 
        8502.48      5.06145e+6 
        8516.58       5.0449e+6 
        8530.98      5.02802e+6 
        8545.38      5.01131e+6 
        8574.18      4.97814e+6 
        8598.39      4.95027e+6 
         8628.6      4.91587e+6 
        8646.81       4.8952e+6 
        8665.01      4.87446e+6 
        8685.59       4.8514e+6 
        8701.43      4.83362e+6 
        8750.47      4.77868e+6 
        8767.92      4.75964e+6 
        8815.35      4.70749e+6 
        8862.78      4.65571e+6 
        8900.38      4.61626e+6 
        8957.65      4.55572e+6 
        9014.91      4.49414e+6 
        9044.62      4.46515e+6 
        9072.17      4.43687e+6 
        9099.72      4.40875e+6 
        9154.81      4.35349e+6 
         9190.8      4.31765e+6 
         9209.9      4.29839e+6 
        9229.01      4.27514e+6 
        9267.22      4.24272e+6 
        9305.43      4.20587e+6 
        9379.63      4.13493e+6 
        9397.45      4.11819e+6 
        9415.28      4.10154e+6 
        9450.94      4.06843e+6 
        9498.52      4.02444e+6 
        9522.24      4.00201e+6 
         9534.1      3.98932e+6 
        9545.97      3.96862e+6 
        9557.83      3.96786e+6 
        9569.68      3.95907e+6 
        9581.55      3.94898e+6 
        9605.27      3.92806e+6 
        9636.96      3.89997e+6 
        9652.71      3.88606e+6 
        9668.45       3.8722e+6 
        9699.94      3.84487e+6 
        9762.91      3.79074e+6 
        9825.88      3.73736e+6 
        9888.86      3.68471e+6 
        9950.84      3.63357e+6 
        9966.69      3.62065e+6 
        9979.12      3.61054e+6 
        9996.68      3.59621e+6 
        10014.2      3.58154e+6 
        10031.8      3.56486e+6 
          10045      3.54142e+6 
        10055.9      3.53699e+6 
        10066.9      3.53706e+6 
        10080.1      3.52901e+6 
        10097.7      3.51607e+6 
        10132.8      3.48908e+6 
        10168.8      3.46128e+6 
          10203      3.43508e+6 
        10237.2      3.40904e+6 
        10305.5      3.35883e+6 
        10373.9      3.30939e+6 
        10442.2      3.26063e+6 
        10510.6      3.21262e+6 
        10578.9      3.16534e+6 
        10647.3      3.11878e+6 
        10715.6       3.0729e+6 
          10784      3.02768e+6 
        10852.3       2.9829e+6 
        10903.3        2.948e+6 
        10920.7      2.93084e+6 
        10933.7      2.89266e+6 
        10944.1      2.89385e+6 
        10954.9      2.90878e+6 
        10972.3      2.90426e+6 
        10998.4      2.88974e+6 
        11033.2      2.86868e+6 
        11102.8      2.82621e+6 
        11172.3      2.78424e+6 
        11222.9      2.75413e+6 
        11241.9      2.74289e+6 
        11260.9       2.7317e+6 
        11298.9       2.7104e+6 
          11375       2.6683e+6 
          11451      2.62689e+6 
        11527.1      2.58614e+6 
        11603.2      2.54606e+6 
        11679.2      2.50663e+6 
        11755.3      2.46784e+6 
        11831.3       2.4297e+6 
        11907.4      2.39219e+6 
        11983.4       2.3553e+6 
        12059.5      2.31901e+6 
        12135.5      2.28335e+6 
        12211.6      2.24828e+6 
        12284.6      2.21516e+6 
        12357.7      2.18413e+6 
        12430.7      2.15354e+6 
        12503.8      2.12339e+6 
        12576.8      2.09364e+6 
        12649.8      2.06418e+6 
        12686.4      2.04946e+6 
        12722.9      2.03448e+6 
        12741.1      2.02665e+6 
        12759.4      2.01815e+6 
        12773.8      2.01022e+6 
        12784.8      2.00206e+6 
        12795.9      1.98869e+6 
          12807       1.9563e+6 
        12817.4      1.84944e+6 
          12829      1.94705e+6 
          12840      1.97148e+6 
        12851.1      1.97648e+6 
        12862.2      1.97619e+6 
        12873.3      1.97398e+6 
        12884.3      1.97092e+6 
        12906.5      1.96373e+6 
        12950.8      1.94799e+6 
        13039.4      1.91569e+6 
          13128      1.88366e+6 
        13216.6      1.85215e+6 
        13302.1      1.82228e+6 
        13314.6      1.81806e+6 
        13327.1      1.81398e+6 
        13352.2      1.80585e+6 
        13402.3      1.78969e+6 
        13452.4      1.77368e+6 
        13502.4      1.75782e+6 
        13552.5      1.74209e+6 
        13602.6      1.72652e+6 
        13652.7      1.71109e+6 
        13702.8       1.6958e+6 
        13752.9      1.68065e+6 
