# Koester WD models
# teff = 6250 K (value for the effective temperature for the model. Temperatures are given in K)
# logg = 9 log(cm/s2) (value for Log(G) for the model.)
#
# column 1: WAVELENGTH (ANGSTROM), Wavelength in Angstrom
# column 2: FLUX (ERG/CM2/S/A), Flux in erg/cm2/s/A
         899.23        0.130863 
        909.241        0.175069 
        919.251        0.233003 
        929.261        0.311092 
        939.271        0.416167 
         949.28        0.524467 
        959.289        0.784104 
        969.297         1.07031 
        979.305         1.48339 
        989.312         1.97195 
        999.319         2.54414 
        1009.33         3.22924 
        1019.33         3.93023 
        1029.34         4.72653 
        1039.34         6.27967 
        1049.35          7.7297 
        1059.36         9.46311 
        1069.36         11.4987 
        1079.36         13.9567 
        1089.37         16.7999 
        1099.37         20.2084 
        1109.38         24.1225 
        1119.38         28.9245 
        1129.38         34.4199 
        1139.39         40.5752 
        1149.39         47.2197 
        1159.39          53.342 
        1169.39         58.0079 
         1179.4          62.867 
         1189.4         72.5212 
         1199.4         84.4168 
         1209.4          97.467 
        1219.41         112.979 
        1229.41         133.947 
        1239.41         156.496 
        1249.41         181.338 
        1259.41         209.712 
        1269.41         245.466 
        1279.42           288.8 
        1289.42         335.415 
        1299.42         385.725 
        1309.42          442.22 
        1319.42         502.758 
        1329.42         572.816 
        1339.42         647.614 
        1349.42         730.357 
        1359.42         825.447 
        1369.42         925.607 
        1379.42         1035.13 
        1389.42         1158.99 
        1399.42         1295.74 
        1409.42         1440.66 
        1419.42         1598.94 
        1429.42          1771.6 
        1439.42         1958.28 
        1454.42         2279.87 
        1464.42         2518.46 
        1474.42         2764.71 
        1489.42         3151.74 
        1504.42         3597.81 
        1514.42          3962.8 
        1529.42         4569.45 
        1544.42         5189.82 
        1559.42         5751.38 
        1570.19         6194.47 
        1584.41         6866.67 
        1599.41          7681.1 
        1614.41         8706.36 
        1626.91         9834.82 
        1639.41         11270.5 
        1654.41         13308.8 
        1665.56         14953.9 
        1676.33         16612.6 
         1689.4         18793.6 
         1704.4         21587.4 
         1719.4         24472.8 
         1734.4           27569 
        1749.39         30700.5 
        1764.39         33922.6 
        1775.55         36495.6 
        1789.39         40078.6 
        1809.39         45603.7 
           1824         49965.8 
        1834.77         53374.7 
        1845.54         56920.3 
         1856.3         60798.9 
        1867.07         64812.3 
        1882.44         70992.5 
        1894.73         76343.5 
        1907.03         82076.3 
        1919.18         88079.9 
        1931.21         94169.6 
        1943.24          101008 
        1955.27          108152 
        1966.01          114558 
        1976.33          120988 
        1986.66          127694 
        1996.81          134586 
        2007.31          142023 
        2017.81          149800 
        2028.31          158537 
        2038.81          167025 
        2049.31          175744 
        2067.03          191193 
        2084.76          208052 
        2102.48          226111 
        2116.25          241031 
        2130.03          257084 
         2143.8          274729 
        2157.58          292414 
        2181.27          324624 
        2197.07          347523 
        2211.03          369118 
        2225.68          391816 
        2240.32          414803 
        2252.12          433713 
        2263.91          453703 
        2275.71          477956 
        2287.51          502228 
         2299.3          527357 
        2313.13          559307 
        2326.97          589457 
         2340.8          622701 
        2354.64          658333 
        2370.07          701838 
        2385.51          749084 
        2400.95          802171 
        2412.93          847853 
        2427.53          909598 
         2437.8          956602 
        2451.59      1.02185e+6 
        2465.39      1.09741e+6 
        2475.96      1.15883e+6 
        2492.99       1.2644e+6 
        2510.01      1.37662e+6 
        2527.04      1.48628e+6 
        2544.07      1.60022e+6 
        2555.44      1.67842e+6 
        2566.81      1.76878e+6 
        2578.19      1.86708e+6 
        2589.56      1.96875e+6 
        2600.94      2.07404e+6 
         2616.1       2.2202e+6 
        2631.27      2.36937e+6 
        2644.47      2.50368e+6 
        2657.62      2.64181e+6 
        2670.42      2.74975e+6 
        2683.21      2.85924e+6 
        2708.81      3.08039e+6 
        2732.46      3.28689e+6 
        2756.11      3.49543e+6 
        2779.76      3.71509e+6 
        2803.41      3.93723e+6 
        2827.06      4.16154e+6 
        2846.87      4.35142e+6 
        2862.22      4.50501e+6 
        2877.57      4.66592e+6 
        2908.26      4.99391e+6 
        2930.62       5.2366e+6 
        2952.98      5.48195e+6 
        2975.34      5.70651e+6 
         2997.7      5.93218e+6 
        3020.06      6.15868e+6 
        3033.42      6.29437e+6 
        3051.42      6.47762e+6 
        3069.42      6.68283e+6 
        3087.43      6.88879e+6 
        3123.43      7.30235e+6 
        3149.86      7.60668e+6 
         3202.7       8.2508e+6 
         3225.5      8.52854e+6 
         3236.9      8.66721e+6 
        3248.29      8.80576e+6 
        3259.69      8.89803e+6 
        3271.09      8.98979e+6 
        3282.49      9.08106e+6 
        3293.89      9.17179e+6 
        3305.28      9.26198e+6 
        3316.68      9.35161e+6 
        3328.08      9.44067e+6 
        3339.48      9.52917e+6 
        3361.23      9.69492e+6 
        3390.24      9.91138e+6 
        3445.17      1.03103e+7 
        3456.59      1.03874e+7 
        3495.92      1.06475e+7 
         3543.6      1.09519e+7 
        3591.28      1.12341e+7 
        3635.88      1.14813e+7 
        3647.12      1.15418e+7 
        3658.96      1.16047e+7 
        3671.11      1.16677e+7 
        3682.58       1.1726e+7 
         3693.5      1.17802e+7 
        3703.57      1.18292e+7 
        3713.83      1.18781e+7 
        3724.38      1.19244e+7 
        3734.43      1.19623e+7 
        3744.62      1.20012e+7 
        3754.84       1.2039e+7 
        3765.07       1.2076e+7 
         3775.5       1.2113e+7 
        3786.22      1.21502e+7 
        3796.45      1.21844e+7 
        3807.84      1.22229e+7 
        3818.92      1.22591e+7 
        3830.45      1.22966e+7 
        3840.76      1.23297e+7 
        3851.98      1.23657e+7 
        3862.01      1.23966e+7 
        3872.59      1.24279e+7 
         3884.4      1.24576e+7 
        3894.46      1.24877e+7 
        3908.89      1.25336e+7 
        3923.89      1.25778e+7 
        3935.81       1.2612e+7 
        3946.58      1.26397e+7 
        3957.31      1.26584e+7 
        3967.38      1.26386e+7 
        3977.86      1.26994e+7 
        3988.87      1.27513e+7 
        4003.87      1.27959e+7 
        4018.86      1.28343e+7 
        4032.38      1.28666e+7 
        4043.86      1.28919e+7 
        4058.85      1.29206e+7 
        4073.85      1.29386e+7 
           4084        1.293e+7 
        4096.52      1.27932e+7 
        4106.79       1.2808e+7 
        4117.77      1.29858e+7 
        4128.84      1.30438e+7 
        4143.83      1.30854e+7 
        4158.83      1.31156e+7 
        4173.82      1.31412e+7 
        4188.82      1.31638e+7 
        4203.81       1.3184e+7 
        4216.52      1.32002e+7 
        4228.81      1.32144e+7 
        4243.81      1.32297e+7 
         4258.8      1.32423e+7 
         4273.8      1.32511e+7 
        4288.79      1.32536e+7 
        4303.79      1.32412e+7 
        4314.07      1.32075e+7 
        4326.14      1.30677e+7 
        4336.17      1.25616e+7 
        4346.17      1.26895e+7 
        4357.43      1.31345e+7 
        4367.98      1.32373e+7 
        4378.77      1.32771e+7 
        4393.77      1.33007e+7 
        4408.76      1.33085e+7 
        4423.76      1.33088e+7 
        4438.75      1.33064e+7 
        4453.75      1.33023e+7 
        4468.74      1.32968e+7 
        4483.74      1.32904e+7 
        4498.74      1.32841e+7 
        4513.73      1.32843e+7 
        4527.19      1.32832e+7 
        4538.73      1.32813e+7 
        4553.72      1.32777e+7 
        4568.72      1.32728e+7 
        4583.72      1.32666e+7 
        4596.53      1.32601e+7 
        4608.71       1.3252e+7 
         4623.7       1.3241e+7 
         4638.7      1.32292e+7 
         4653.7      1.32165e+7 
        4668.69      1.32028e+7 
        4683.69      1.31882e+7 
        4698.68      1.31722e+7 
        4713.68      1.31546e+7 
        4724.83      1.31408e+7 
        4738.67      1.31226e+7 
        4753.67       1.3101e+7 
        4768.67      1.30767e+7 
        4783.66      1.30479e+7 
        4798.66      1.30105e+7 
        4813.65      1.29543e+7 
        4828.65      1.28458e+7 
        4839.16      1.26708e+7 
        4849.39      1.22158e+7 
        4859.47      1.07632e+7 
        4869.65      1.18621e+7 
        4880.32      1.25332e+7 
        4893.63      1.27574e+7 
        4908.63      1.28245e+7 
         4921.7      1.28378e+7 
        4933.62      1.28361e+7 
        4948.62       1.2825e+7 
        4963.61      1.28087e+7 
        4978.61      1.27894e+7 
        4993.61      1.27681e+7 
         5008.6      1.27454e+7 
         5023.6      1.27218e+7 
        5038.59      1.26975e+7 
        5053.59      1.26726e+7 
        5068.59      1.26473e+7 
        5083.58      1.26215e+7 
        5098.58       1.2595e+7 
        5113.57      1.25681e+7 
        5128.57      1.25409e+7 
        5143.57      1.25134e+7 
        5158.56      1.24856e+7 
        5173.56      1.24576e+7 
        5188.55      1.24292e+7 
        5203.55      1.24006e+7 
        5218.55      1.23717e+7 
        5233.54      1.23426e+7 
        5248.54      1.23133e+7 
        5263.53      1.22838e+7 
        5278.53      1.22545e+7 
        5293.52      1.22256e+7 
        5308.52      1.21964e+7 
        5323.52       1.2167e+7 
        5338.51      1.21374e+7 
        5353.51      1.21076e+7 
        5368.51      1.20781e+7 
         5383.5      1.20471e+7 
         5398.5      1.20156e+7 
        5413.49      1.19841e+7 
        5428.49      1.19524e+7 
        5443.48      1.19206e+7 
        5458.48      1.18887e+7 
        5473.48      1.18569e+7 
        5488.47      1.18254e+7 
        5503.47      1.17937e+7 
        5518.47      1.17619e+7 
        5533.46        1.173e+7 
        5548.46      1.16979e+7 
        5563.45      1.16658e+7 
        5578.45      1.16335e+7 
        5593.44      1.16011e+7 
        5608.44      1.15687e+7 
        5623.44      1.15361e+7 
        5638.43      1.15034e+7 
        5653.43      1.14707e+7 
        5668.43      1.14395e+7 
        5682.86      1.14078e+7 
        5693.42      1.13846e+7 
        5704.77      1.13596e+7 
        5715.23      1.13365e+7 
        5728.41      1.13074e+7 
         5743.4      1.12742e+7 
         5758.4      1.12409e+7 
         5773.4      1.12046e+7 
        5788.39      1.11712e+7 
        5803.39      1.11377e+7 
        5818.39      1.11041e+7 
        5833.38      1.10705e+7 
        5848.38      1.10369e+7 
        5863.37      1.10032e+7 
        5878.37      1.09695e+7 
        5893.36      1.09358e+7 
        5908.36       1.0902e+7 
        5923.36      1.08682e+7 
        5938.35      1.08343e+7 
        5953.35      1.08005e+7 
        5968.34      1.07666e+7 
        5983.34      1.07326e+7 
        5998.34      1.06986e+7 
        6013.33      1.06645e+7 
        6028.33      1.06305e+7 
        6043.32      1.05964e+7 
        6058.32      1.05623e+7 
        6073.32      1.05281e+7 
        6088.31       1.0494e+7 
        6103.31      1.04598e+7 
         6118.3      1.04256e+7 
         6133.3      1.03913e+7 
         6148.3       1.0357e+7 
        6163.29      1.03227e+7 
        6178.29      1.02883e+7 
        6193.28      1.02538e+7 
        6208.28      1.02193e+7 
        6223.28      1.01847e+7 
        6238.27        1.015e+7 
        6252.16      1.01178e+7 
        6262.16      1.00945e+7 
        6273.26      1.00685e+7 
        6284.63      1.00418e+7 
        6295.99       1.0015e+7 
        6306.09      9.99105e+6 
        6316.22      9.96683e+6 
        6328.25      9.93783e+6 
        6343.24      9.90126e+6 
        6358.24      9.86404e+6 
        6373.23      9.82596e+6 
        6388.23      9.78675e+6 
        6403.23      9.74594e+6 
        6418.22      9.70293e+6 
        6433.22      9.65666e+6 
        6448.22      9.60558e+6 
        6463.21      9.54689e+6 
        6478.21      9.47573e+6 
         6493.2       9.3829e+6 
         6508.2      9.24929e+6 
        6523.19      9.03098e+6 
        6537.09      8.65546e+6 
        6548.06      8.07562e+6 
        6558.19      6.95282e+6 
        6569.28      7.22177e+6 
        6579.79      8.17395e+6 
        6590.04      8.61173e+6 
        6603.34      8.89014e+6 
        6613.66      9.00051e+6 
        6623.98      9.06349e+6 
         6634.3      9.09862e+6 
        6644.62      9.11662e+6 
        6654.94      9.12353e+6 
        6665.26        9.123e+6 
         6685.9      9.10795e+6 
        6711.48      9.07471e+6 
        6762.62      8.98753e+6 
        6802.75      8.91094e+6 
        6813.77      8.88932e+6 
        6824.78      8.86752e+6 
        6846.81      8.82382e+6 
        6890.86      8.73545e+6 
        6978.98      8.55732e+6 
        7025.03      8.46433e+6 
        7067.09      8.37966e+6 
        7109.15      8.29541e+6 
        7193.26       8.1295e+6 
        7277.38      7.96563e+6 
        7329.48       7.8652e+6 
         7361.5      7.80394e+6 
        7393.51      7.74418e+6 
        7457.55      7.62411e+6 
        7521.58      7.50548e+6 
        7585.61       7.3883e+6 
        7621.41      7.32343e+6 
        7649.65      7.27257e+6 
        7677.88      7.22202e+6 
        7734.35      7.12252e+6 
        7790.83      7.02419e+6 
         7847.3      6.92699e+6 
        7903.77      6.83092e+6 
        7958.24      6.73938e+6 
        7974.27      6.71277e+6 
         7990.3      6.68625e+6 
        8022.35      6.63354e+6 
        8082.55      6.53552e+6 
        8142.75       6.4391e+6 
        8200.85      6.34727e+6 
        8216.85      6.32227e+6 
        8232.84      6.29739e+6 
        8264.83      6.24787e+6 
        8289.72      6.20961e+6 
        8328.82      6.14995e+6 
        8343.44      6.12777e+6 
        8367.92      6.09079e+6 
        8388.68      6.05972e+6 
        8408.65         6.03e+6 
        8432.02      5.99538e+6 
        8467.25      5.94355e+6 
        8502.48      5.89215e+6 
        8516.58      5.87167e+6 
        8530.98      5.85087e+6 
        8545.38      5.83023e+6 
        8574.18       5.7892e+6 
        8598.39       5.7549e+6 
         8628.6      5.71239e+6 
        8646.81      5.68691e+6 
        8665.01      5.66153e+6 
        8685.59        5.633e+6 
        8701.43       5.6111e+6 
        8750.47      5.54391e+6 
        8767.92      5.52019e+6 
        8815.35      5.45622e+6 
        8862.78      5.39339e+6 
        8900.38      5.34419e+6 
        8957.65      5.27002e+6 
        9014.91      5.19679e+6 
        9044.62      5.15931e+6 
        9072.17      5.12475e+6 
        9099.72      5.09042e+6 
        9154.81      5.02297e+6 
         9190.8      4.97939e+6 
         9209.9       4.9564e+6 
        9229.01      4.93334e+6 
        9267.22       4.8881e+6 
         9303.2      4.84572e+6 
        9343.64      4.79853e+6 
        9384.08      4.75182e+6 
        9464.96      4.66046e+6 
        9545.72      4.57055e+6 
        9561.21      4.55402e+6 
        9576.69      4.53721e+6 
        9607.66      4.50372e+6 
        9668.45      4.43863e+6 
        9729.24      4.37504e+6 
        9790.04      4.31237e+6 
        9850.83      4.25064e+6 
        9870.42      4.23094e+6 
        9911.62      4.18982e+6 
        9952.82      4.14907e+6 
        10021.1      4.08256e+6 
        10035.2      4.06865e+6 
        10049.4      4.05413e+6 
        10077.7      4.02872e+6 
        10134.2      3.97619e+6 
        10144.5       3.9667e+6 
        10190.8      3.92394e+6 
        10237.2      3.88166e+6 
        10329.9      3.80013e+6 
        10422.6       3.7204e+6 
        10515.3      3.64236e+6 
          10608      3.56612e+6 
        10700.7       3.4915e+6 
        10793.4      3.41843e+6 
        10834.1      3.38667e+6 
        10886.1      3.34573e+6 
        10938.1      3.30087e+6 
        10990.1      3.26788e+6 
          11042      3.23088e+6 
          11094      3.19352e+6 
          11146      3.15645e+6 
          11198       3.1198e+6 
          11239      3.09117e+6 
          11250      3.08358e+6 
        11260.9      3.07601e+6 
        11282.8      3.06142e+6 
        11326.6      3.03246e+6 
        11414.2      2.97543e+6 
        11501.8       2.9196e+6 
        11589.4      2.86489e+6 
          11677      2.81133e+6 
        11764.6      2.75889e+6 
        11852.2      2.70768e+6 
        11939.8      2.65753e+6 
        12027.4      2.60834e+6 
          12115      2.56022e+6 
        12202.6      2.51309e+6 
        12284.6      2.46983e+6 
        12366.6      2.42904e+6 
        12448.7      2.38895e+6 
        12530.7      2.34947e+6 
        12612.7      2.31044e+6 
        12694.7      2.27108e+6 
        12735.4      2.25033e+6 
          12756      2.23869e+6 
        12776.7       2.2254e+6 
        12797.4      2.20934e+6 
        12807.7      2.20021e+6 
        12818.1      2.18768e+6 
        12828.4      2.19104e+6 
        12838.7      2.19097e+6 
        12849.1       2.1902e+6 
        12859.4      2.18861e+6 
        12874.9      2.18496e+6 
        12895.6      2.17851e+6 
        12936.9      2.16303e+6 
        13019.6      2.12914e+6 
        13102.3      2.09478e+6 
          13185      2.06077e+6 
        13227.1      2.04365e+6 
        13267.7      2.02728e+6 
        13308.4      2.01105e+6 
        13389.6      1.98041e+6 
        13470.8      1.95027e+6 
          13552      1.92061e+6 
        13633.2       1.8915e+6 
        13714.4      1.86279e+6 
        13795.7      1.83456e+6 
        13876.9       1.8068e+6 
        13958.1       1.7795e+6 
        14039.3      1.75266e+6 
        14120.5      1.72627e+6 
        14201.7      1.70031e+6 
        14233.9      1.69017e+6 
          14283      1.67479e+6 
        14332.1      1.65957e+6 
        14402.9      1.63837e+6 
        14430.3      1.63026e+6 
        14457.6       1.6222e+6 
        14512.4      1.60628e+6 
          14551      1.59516e+6 
        14567.1      1.59053e+6 
        14581.2       1.5865e+6 
        14597.2      1.58199e+6 
        14613.2       1.5775e+6 
        14645.2      1.56857e+6 
        14709.2      1.55087e+6 
        14773.2      1.53338e+6 
        14837.1       1.5161e+6 
        14901.1      1.49902e+6 
        14965.1      1.48216e+6 
        15029.1       1.4655e+6 
        15093.1      1.44904e+6 
        15157.1      1.43278e+6 
          15221      1.41673e+6 
          15285      1.40086e+6 
          15349      1.38519e+6 
          15413      1.36971e+6 
