# Koester WD models
# teff = 6000 K (value for the effective temperature for the model. Temperatures are given in K)
# logg = 8.75 log(cm/s2) (value for Log(G) for the model.)
#
# column 1: WAVELENGTH (ANGSTROM), Wavelength in Angstrom
# column 2: FLUX (ERG/CM2/S/A), Flux in erg/cm2/s/A
         899.23        0.044118 
        909.241       0.0597305 
        919.251       0.0803095 
        929.261        0.107443 
        939.271        0.142774 
         949.28        0.187213 
        959.289        0.269396 
        969.297        0.369703 
        979.305        0.506814 
        989.312        0.670296 
        999.319        0.867981 
        1009.33          1.1103 
        1019.33         1.38512 
        1029.34         1.70785 
        1039.34         2.21899 
        1049.35         2.75634 
        1059.36         3.40819 
        1069.36         4.18441 
        1079.36         5.12862 
        1089.37         6.23832 
        1099.37         7.57721 
        1109.38         9.13974 
        1119.38         11.0515 
        1129.38         13.2729 
        1139.39         15.8158 
        1149.39         18.6476 
        1159.39          21.456 
        1169.39         23.8809 
         1179.4         26.4757 
         1189.4         30.9478 
         1199.4         36.3793 
         1209.4         42.6669 
        1219.41           49.94 
        1229.41         58.6363 
        1239.41         68.7245 
        1249.41         80.0644 
        1259.41         93.0527 
        1269.41         109.172 
        1279.42         128.597 
        1289.42         149.862 
        1299.42         173.013 
        1309.42         199.265 
        1319.42         227.784 
        1329.42         260.692 
        1339.42         296.315 
        1349.42          336.05 
        1359.42         381.553 
        1369.42          430.09 
        1379.42           483.9 
        1389.42         544.636 
        1399.42         611.473 
        1409.42         683.359 
        1419.42         763.215 
        1429.42          850.74 
        1439.42         944.919 
        1454.42          1106.5 
        1464.42         1228.58 
        1474.42         1357.81 
        1489.42          1561.9 
        1504.42         1795.59 
        1514.42         1982.91 
        1529.42         2299.55 
        1544.42         2632.02 
        1559.42         2951.59 
        1570.19         3200.03 
        1584.41         3576.92 
        1599.41         4030.47 
        1614.41          4588.2 
        1629.41         5320.26 
        1644.41         6255.66 
        1659.41         7320.73 
        1670.17         8143.35 
         1684.4         9301.03 
         1699.4         10679.7 
         1714.4         12143.8 
         1729.4         13716.2 
         1744.4         15371.3 
        1759.39         17069.9 
         1771.7         18558.2 
        1784.39         20258.7 
        1799.39         22441.7 
        1819.38         25575.3 
        1834.77         28202.3 
        1845.54         30147.4 
         1856.3         32259.1 
        1867.07           34457 
        1882.44         37838.6 
        1900.88         42289.6 
        1913.17         45502.8 
        1925.56         48897.9 
        1937.95         52653.7 
        1950.34         56606.8 
        1968.59         62586.8 
        1980.65         66818.5 
        1992.71         71275.8 
        2004.77         75974.7 
        2015.84         80510.5 
         2027.8         85895.2 
        2047.42         94841.5 
        2067.03          104485 
        2086.65          115119 
        2106.26          126625 
        2126.24          139389 
        2146.22          153710 
        2165.47          168071 
           2184          182751 
        2202.53          198471 
         2214.7          209395 
        2226.86          220357 
        2238.44          231129 
        2251.18          243318 
        2263.91          256225 
        2276.65          271632 
        2287.07          284292 
        2304.45          306613 
        2321.82          329823 
        2333.41          345321 
        2347.88          366558 
        2362.35          389023 
        2376.82          413836 
         2391.3          440074 
        2402.26          462703 
        2416.29          493648 
        2430.32          528708 
        2444.35          565656 
        2456.19          598530 
        2474.59          660435 
        2492.99          726358 
        2510.01          792149 
        2527.04          857523 
        2543.14          922387 
        2555.21          972882 
        2567.28      1.03073e+6 
        2579.35      1.09401e+6 
        2591.43      1.15994e+6 
        2605.66      1.24211e+6 
        2618.66      1.31996e+6 
        2631.66      1.39999e+6 
        2644.67      1.48292e+6 
        2657.67      1.56881e+6 
        2670.67       1.6387e+6 
        2683.68      1.70948e+6 
        2702.26      1.81204e+6 
        2729.18      1.96365e+6 
        2742.65      2.04075e+6 
        2756.11      2.11881e+6 
        2769.57      2.20187e+6 
        2783.03      2.28599e+6 
         2796.5      2.37111e+6 
        2809.96       2.4572e+6 
        2823.42      2.54432e+6 
        2846.15      2.69373e+6 
        2862.95      2.81036e+6 
        2879.74      2.93362e+6 
        2913.34      3.18664e+6 
         2940.9      3.40049e+6 
        2952.98      3.49615e+6 
        2965.06      3.58522e+6 
        2989.22      3.76536e+6 
        3023.67      4.02658e+6 
        3037.55      4.13314e+6 
        3051.42      4.24043e+6 
        3063.98      4.35007e+6 
        3079.17      4.48387e+6 
        3106.92      4.73127e+6 
        3128.39      4.92517e+6 
        3149.86      5.12083e+6 
        3171.33      5.33197e+6 
         3192.8      5.54501e+6 
        3214.27      5.75976e+6 
        3235.74      5.97603e+6 
        3248.29      6.10305e+6 
        3260.85      6.19019e+6 
        3273.41      6.27712e+6 
        3287.98      6.37781e+6 
        3317.36      6.57972e+6 
        3346.73      6.78015e+6 
        3365.79      6.90833e+6 
        3405.48      7.17263e+6 
        3445.17      7.43304e+6 
        3484.86       7.6784e+6 
        3505.49      7.80403e+6 
        3524.55      7.91886e+6 
         3543.6      8.03255e+6 
        3572.15      8.19588e+6 
        3591.28      8.30383e+6 
        3610.42      8.40866e+6 
        3635.88      8.54617e+6 
        3647.12      8.60624e+6 
        3658.96      8.66888e+6 
        3671.11      8.73206e+6 
        3682.58      8.79065e+6 
         3693.5      8.84547e+6 
        3703.57       8.8952e+6 
        3713.83      8.94512e+6 
        3724.38      8.99265e+6 
        3734.43       9.0323e+6 
        3744.62      9.07279e+6 
        3754.84      9.11241e+6 
        3765.07      9.15146e+6 
         3775.5      9.19067e+6 
        3786.22      9.23038e+6 
        3796.45      9.26726e+6 
        3807.84      9.30863e+6 
        3818.92      9.34797e+6 
        3830.45      9.38912e+6 
        3840.76      9.42553e+6 
        3851.98      9.46499e+6 
        3862.01      9.49927e+6 
        3872.59      9.53442e+6 
         3884.4      9.56964e+6 
        3894.46      9.60303e+6 
        3908.89       9.6527e+6 
        3923.89      9.70234e+6 
        3935.81      9.74132e+6 
        3946.58      9.77437e+6 
        3957.31      9.80142e+6 
        3967.38      9.80004e+6 
        3977.86      9.85524e+6 
        3988.87      9.90331e+6 
        4003.87      9.95103e+6 
        4018.86      9.99479e+6 
        4032.38      1.00328e+7 
        4043.86      1.00635e+7 
        4058.85      1.01008e+7 
        4073.85      1.01314e+7 
           4084      1.01398e+7 
        4096.52      1.00689e+7 
        4106.79      1.00898e+7 
        4117.77      1.02149e+7 
        4128.84      1.02626e+7 
        4143.83      1.03052e+7 
        4158.83      1.03407e+7 
        4173.82       1.0373e+7 
        4188.82      1.04031e+7 
        4203.81      1.04314e+7 
        4216.52      1.04547e+7 
        4228.81      1.04761e+7 
        4243.81      1.05005e+7 
         4258.8      1.05229e+7 
         4273.8      1.05427e+7 
        4288.79      1.05584e+7 
        4303.79      1.05652e+7 
        4314.07      1.05549e+7 
        4326.14      1.04821e+7 
        4336.17      1.01603e+7 
        4346.17      1.02547e+7 
        4357.43      1.05464e+7 
        4367.98      1.06146e+7 
        4378.77      1.06452e+7 
        4393.77      1.06693e+7 
        4408.76      1.06826e+7 
        4423.76      1.06906e+7 
        4438.75      1.06968e+7 
        4453.75      1.07018e+7 
        4468.74      1.07058e+7 
        4483.74       1.0709e+7 
        4498.74      1.07125e+7 
        4513.73      1.07225e+7 
        4527.19      1.07302e+7 
        4538.73      1.07361e+7 
        4553.72      1.07425e+7 
        4568.72      1.07478e+7 
        4583.72      1.07519e+7 
        4596.53      1.07541e+7 
        4608.71      1.07544e+7 
         4623.7      1.07538e+7 
         4638.7      1.07525e+7 
         4653.7      1.07503e+7 
        4668.69      1.07474e+7 
        4683.69      1.07436e+7 
        4698.68      1.07386e+7 
        4713.68      1.07322e+7 
        4724.83       1.0727e+7 
        4738.67      1.07196e+7 
        4753.67      1.07104e+7 
        4768.67      1.06994e+7 
        4783.66      1.06855e+7 
        4798.66      1.06664e+7 
        4813.65      1.06359e+7 
        4828.65      1.05735e+7 
        4839.16      1.04676e+7 
        4849.39      1.01714e+7 
        4859.47      9.10983e+6 
        4869.58      9.92354e+6 
        4879.92      1.03793e+7 
        4891.06      1.05146e+7 
        4903.34      1.05623e+7 
        4913.63      1.05763e+7 
        4925.16      1.05807e+7 
        4938.62      1.05787e+7 
        4953.62      1.05717e+7 
        4968.61      1.05622e+7 
        4983.61      1.05509e+7 
         4998.6      1.05384e+7 
         5013.6      1.05251e+7 
         5028.6      1.05111e+7 
        5043.59      1.04966e+7 
        5058.59      1.04816e+7 
        5073.58      1.04662e+7 
        5088.58      1.04502e+7 
        5103.58      1.04336e+7 
        5118.57      1.04167e+7 
        5133.57      1.03996e+7 
        5148.56      1.03821e+7 
        5163.56      1.03644e+7 
        5178.56      1.03464e+7 
        5193.55      1.03279e+7 
        5208.55      1.03092e+7 
        5223.54      1.02903e+7 
        5238.54      1.02712e+7 
        5253.54      1.02518e+7 
        5268.53      1.02322e+7 
        5283.53      1.02131e+7 
        5298.52      1.01941e+7 
        5313.52      1.01749e+7 
        5328.52      1.01554e+7 
        5343.51      1.01356e+7 
        5358.51      1.01156e+7 
         5373.5      1.00955e+7 
         5388.5      1.00741e+7 
         5403.5      1.00523e+7 
        5418.49      1.00305e+7 
        5433.49      1.00085e+7 
        5448.48      9.98627e+6 
        5463.48      9.96394e+6 
        5478.48      9.94188e+6 
        5493.47      9.91992e+6 
        5508.47      9.89778e+6 
        5523.46      9.87547e+6 
        5538.46      9.85304e+6 
        5553.46      9.83045e+6 
        5568.45      9.80771e+6 
        5583.45       9.7848e+6 
        5598.44      9.76175e+6 
        5613.44      9.73859e+6 
        5628.44      9.71531e+6 
        5643.43      9.69188e+6 
        5658.43      9.66835e+6 
        5673.42      9.64554e+6 
         5686.2      9.62527e+6 
        5698.42      9.60583e+6 
        5708.88      9.58911e+6 
        5723.41      9.56584e+6 
        5738.41      9.54171e+6 
         5753.4      9.51749e+6 
         5768.4      9.49135e+6 
        5783.39      9.46691e+6 
        5798.39      9.44234e+6 
        5813.39      9.41771e+6 
        5828.38      9.39299e+6 
        5843.38      9.36817e+6 
        5858.37      9.34329e+6 
        5873.37      9.31834e+6 
        5888.37      9.29333e+6 
        5903.36      9.26826e+6 
        5918.36      9.24313e+6 
        5933.35       9.2179e+6 
        5948.35      9.19261e+6 
        5963.35      9.16726e+6 
        5978.34      9.14181e+6 
        5993.34       9.1163e+6 
        6008.33      9.09073e+6 
        6023.33       9.0651e+6 
        6038.32       9.0394e+6 
        6053.32      9.01364e+6 
        6068.32      8.98785e+6 
        6083.31      8.96199e+6 
        6098.31       8.9361e+6 
        6113.31      8.91012e+6 
         6128.3      8.88411e+6 
         6143.3      8.85807e+6 
        6158.29      8.83196e+6 
        6173.29      8.80582e+6 
        6188.28      8.77962e+6 
        6203.28      8.75333e+6 
        6218.28      8.72697e+6 
        6233.27      8.70055e+6 
        6244.38      8.68088e+6 
        6256.04      8.66021e+6 
        6266.59      8.64142e+6 
        6278.26      8.62056e+6 
        6290.52      8.59854e+6 
        6302.31      8.57724e+6 
        6312.59      8.55858e+6 
        6323.25      8.53907e+6 
        6338.24      8.51136e+6 
        6353.24      8.48327e+6 
        6368.24      8.45469e+6 
        6383.23      8.42541e+6 
        6398.23      8.39522e+6 
        6413.22      8.36374e+6 
        6428.22       8.3304e+6 
        6443.22      8.29434e+6 
        6458.21        8.254e+6 
        6473.21      8.20672e+6 
         6488.2      8.14734e+6 
         6503.2      8.06529e+6 
         6518.2      7.93632e+6 
        6532.67      7.70755e+6 
        6543.19       7.3862e+6 
        6554.64      6.64711e+6 
        6564.69      5.80337e+6 
        6575.67      6.99743e+6 
        6586.28      7.46185e+6 
        6598.17      7.70051e+6 
         6608.5      7.80315e+6 
        6623.98      7.87569e+6 
         6634.3      7.89658e+6 
        6644.62       7.9056e+6 
        6660.33      7.90569e+6 
         6685.9      7.88716e+6 
        6711.48      7.85744e+6 
        6762.62      7.78465e+6 
        6802.75      7.72225e+6 
        6813.77      7.70476e+6 
        6824.78       7.6871e+6 
        6846.81      7.65182e+6 
        6890.86      7.58057e+6 
        6978.98        7.437e+6 
        7025.03      7.36191e+6 
        7067.09      7.29346e+6 
        7109.15      7.22522e+6 
        7193.26      7.09064e+6 
        7277.38      6.95721e+6 
        7329.48      6.87522e+6 
         7361.5      6.82511e+6 
        7393.51      6.77598e+6 
        7457.55      6.67758e+6 
        7521.58       6.5801e+6 
        7585.61      6.48356e+6 
        7621.41      6.43002e+6 
        7649.65      6.38802e+6 
        7677.88      6.34621e+6 
        7734.35      6.26386e+6 
        7790.83      6.18228e+6 
         7847.3      6.10151e+6 
        7903.77      6.02155e+6 
        7958.24      5.94518e+6 
        7974.27      5.92297e+6 
         7990.3      5.90082e+6 
        8022.35      5.85678e+6 
        8082.55      5.77472e+6 
        8142.75      5.69392e+6 
        8200.85      5.61679e+6 
        8216.85      5.59577e+6 
        8232.84      5.57485e+6 
        8264.83      5.53319e+6 
        8289.72      5.50099e+6 
        8328.82      5.45069e+6 
        8343.44        5.432e+6 
        8367.92      5.40081e+6 
        8388.68      5.37457e+6 
        8408.65      5.34947e+6 
        8432.02      5.32022e+6 
        8467.25      5.27637e+6 
        8502.48      5.23286e+6 
        8516.58      5.21555e+6 
        8530.98      5.19789e+6 
        8545.38      5.18042e+6 
        8574.18      5.14561e+6 
        8598.39      5.11652e+6 
         8628.6      5.08043e+6 
        8646.81      5.05878e+6 
        8665.01      5.03723e+6 
        8685.59      5.01298e+6 
        8701.43      4.99438e+6 
        8750.47      4.93714e+6 
        8767.92      4.91697e+6 
        8815.35      4.86243e+6 
        8862.78      4.80884e+6 
        8900.38      4.76683e+6 
        8957.65      4.70344e+6 
        9014.91      4.64079e+6 
        9044.62      4.60869e+6 
        9072.17      4.57906e+6 
        9099.72      4.54959e+6 
        9154.81      4.49172e+6 
         9190.8      4.45431e+6 
         9209.9      4.43455e+6 
        9229.01      4.41475e+6 
        9267.22      4.37583e+6 
         9303.2      4.33936e+6 
        9343.64      4.29874e+6 
        9384.08      4.25846e+6 
        9464.96      4.17967e+6 
        9545.72       4.1021e+6 
        9561.21      4.08775e+6 
        9576.69       4.0732e+6 
        9607.66       4.0442e+6 
        9668.45      3.98787e+6 
        9729.24      3.93277e+6 
        9790.04      3.87842e+6 
        9850.83      3.82483e+6 
        9870.42      3.80774e+6 
        9911.62      3.77198e+6 
        9952.82      3.73658e+6 
        10021.1       3.6788e+6 
        10035.2      3.66677e+6 
        10049.4      3.65424e+6 
        10077.7      3.63193e+6 
        10134.2      3.58603e+6 
        10144.5      3.57777e+6 
        10190.8      3.54048e+6 
        10237.2      3.50354e+6 
        10329.9      3.43238e+6 
        10422.6       3.3627e+6 
        10515.3      3.29443e+6 
          10608      3.22767e+6 
        10700.7      3.16236e+6 
        10793.4      3.09836e+6 
        10834.1      3.07057e+6 
        10886.1      3.03495e+6 
        10938.1      2.99601e+6 
        10990.1       2.9665e+6 
          11042      2.93364e+6 
          11094      2.90065e+6 
          11146      2.86793e+6 
          11198      2.83558e+6 
          11239      2.81031e+6 
          11250      2.80361e+6 
        11260.9      2.79693e+6 
        11282.8      2.78408e+6 
        11326.6      2.75858e+6 
        11414.2       2.7083e+6 
        11501.8      2.65901e+6 
        11589.4      2.61066e+6 
          11677      2.56326e+6 
        11764.6      2.51678e+6 
        11852.2      2.47121e+6 
        11939.8      2.42654e+6 
        12027.4      2.38272e+6 
          12115      2.33979e+6 
        12202.6      2.29771e+6 
        12284.6      2.25907e+6 
        12366.6      2.22269e+6 
        12448.7       2.1869e+6 
        12530.7      2.15168e+6 
        12612.7      2.11692e+6 
        12694.7      2.08214e+6 
        12735.4       2.0642e+6 
        12776.7      2.04344e+6 
        12797.4      2.03048e+6 
        12807.7       2.0232e+6 
        12818.1      2.01409e+6 
        12828.4      2.01496e+6 
        12838.7        2.014e+6 
        12849.1      2.01253e+6 
        12859.4      2.01044e+6 
        12880.1      2.00486e+6 
        12921.4      1.99093e+6 
        13004.1      1.96023e+6 
        13086.8      1.92917e+6 
        13169.5      1.89845e+6 
        13196.1      1.88868e+6 
        13252.2      1.86821e+6 
        13308.4      1.84798e+6 
        13364.5      1.82894e+6 
        13420.6      1.81011e+6 
        13476.7      1.79147e+6 
        13532.8      1.77304e+6 
        13588.9       1.7548e+6 
          13645      1.73681e+6 
        13701.2      1.71898e+6 
        13757.3      1.70134e+6 
        13813.4       1.6839e+6 
        13869.5      1.66665e+6 
        13925.6      1.64959e+6 
        13981.7      1.63273e+6 
        14037.8      1.61605e+6 
          14094      1.59956e+6 
        14150.1      1.58325e+6 
        14206.2      1.56712e+6 
        14262.3      1.55118e+6 
        14304.8      1.53923e+6 
        14318.4      1.53542e+6 
        14332.1      1.53161e+6 
        14359.4      1.52423e+6 
        14370.3      1.52128e+6 
          14414      1.50958e+6 
        14457.6      1.49796e+6 
        14506.8      1.48509e+6 
          14545      1.47516e+6 
        14581.2      1.46581e+6 
        14597.2      1.46176e+6 
        14613.2      1.45773e+6 
        14645.2      1.44971e+6 
        14709.2      1.43381e+6 
        14773.2      1.41808e+6 
        14837.1      1.40254e+6 
        14901.1      1.38718e+6 
        14965.1        1.372e+6 
        15029.1      1.35699e+6 
        15093.1      1.34215e+6 
        15157.1      1.32749e+6 
          15221      1.31299e+6 
          15285      1.29866e+6 
