# Koester WD models
# teff = 6500 K (value for the effective temperature for the model. Temperatures are given in K)
# logg = 7.5 log(cm/s2) (value for Log(G) for the model.)
#
# column 1: WAVELENGTH (ANGSTROM), Wavelength in Angstrom
# column 2: FLUX (ERG/CM2/S/A), Flux in erg/cm2/s/A
         899.23        0.142296 
        909.241        0.190188 
        919.251        0.268306 
        929.261        0.362571 
        939.271         0.60328 
         949.28        0.567843 
        959.289         1.49021 
        969.297         2.05767 
        979.305         2.96878 
        989.312         3.99708 
        999.319          5.2191 
        1009.33         6.65562 
        1019.33         7.82508 
        1029.34         9.07804 
        1039.34         13.2363 
        1049.35         16.3974 
        1059.36         20.0219 
        1069.36         24.2673 
        1079.36         29.3151 
        1089.37         35.0957 
        1099.37         41.9692 
        1109.38         49.7446 
        1119.38         59.3368 
        1129.38         70.1672 
        1139.39          82.037 
        1149.39         94.5142 
        1159.39         105.378 
        1169.39         112.329 
         1179.4         112.596 
         1189.4         121.066 
         1199.4         135.566 
         1209.4         138.008 
        1219.41         153.474 
        1229.41         225.668 
        1239.41         272.176 
        1249.41         317.492 
        1259.41         369.486 
        1269.41          441.13 
        1279.42         525.962 
        1289.42         612.051 
        1299.42         702.978 
        1309.42         803.817 
        1319.42         910.135 
        1329.42         1034.32 
        1339.42         1164.13 
        1349.42          1307.6 
        1359.42         1472.61 
        1369.42         1644.72 
        1379.42         1831.41 
        1389.42         2041.85 
        1399.42         2275.79 
        1409.42         2520.68 
        1419.42          2783.5 
        1429.42         3069.61 
        1439.42         3381.67 
        1454.42         3921.96 
        1464.42         4315.04 
        1474.42         4710.76 
        1489.42         5332.41 
        1501.92         5916.18 
        1514.42         6660.77 
        1529.42         7648.27 
        1544.42         8634.29 
        1559.42         9465.68 
        1570.19         10118.6 
        1584.41         11102.9 
        1599.41         12310.6 
        1611.91         13642.3 
        1624.41         15447.8 
        1639.41         18256.9 
        1654.41         21707.7 
        1665.56         24761.5 
        1676.33         28142.1 
         1686.9         32083.2 
         1699.4         38163.8 
         1711.9         45377.5 
         1724.4         53953.4 
         1739.4         65877.9 
        1754.39         76504.4 
        1767.08           84403 
        1778.14         92561.1 
        1789.39          105065 
        1804.39          119755 
        1824.38          141797 
        1834.77          154205 
        1846.32          168753 
        1856.32          187573 
        1866.33          205318 
        1877.77          225261 
        1893.03          255498 
        1908.28          289755 
        1919.37          317508 
        1929.76          344482 
        1939.82          396774 
        1949.88          446028 
         1960.7          482998 
        1974.38          533603 
        1989.83          595995 
        2005.27          665656 
         2015.4          715127 
        2026.25          794908 
         2039.5          875728 
        2058.09          979194 
        2075.98       1.0899e+6 
        2089.37      1.18013e+6 
        2102.81      1.27666e+6 
        2116.25      1.37899e+6 
        2126.33      1.45968e+6 
        2136.41      1.57451e+6 
        2148.17      1.68529e+6 
        2165.47      1.83387e+6 
        2176.06      1.92751e+6 
        2186.64      2.02511e+6 
        2197.22      2.12617e+6 
         2207.8      2.23095e+6 
        2228.48      2.43958e+6 
        2242.27      2.58312e+6 
        2256.05      2.73221e+6 
        2267.84      2.92992e+6 
        2283.57      3.14392e+6 
         2299.3      3.35601e+6 
        2313.13      3.54987e+6 
        2326.97      3.71833e+6 
        2340.81       3.8914e+6 
        2362.35      4.16892e+6 
         2401.6      4.67632e+6 
        2413.11      4.83007e+6 
        2424.62      5.01197e+6 
        2436.13      5.18369e+6 
        2447.64      5.32908e+6 
        2460.79      5.50495e+6 
        2488.39      5.87757e+6 
        2510.01      6.17932e+6 
         2547.3      6.66693e+6 
        2559.23      6.82492e+6 
        2571.17      6.99915e+6 
         2583.1       7.1742e+6 
        2595.04      7.35064e+6 
        2606.97      7.57196e+6 
        2618.91      7.75131e+6 
        2630.84      7.91581e+6 
        2651.76      8.20515e+6 
        2663.58      8.35607e+6 
        2675.41      8.49402e+6 
        2699.06      8.76888e+6 
        2736.61      9.20289e+6 
        2756.11      9.42644e+6 
        2774.67      9.63633e+6 
        2814.61      1.00833e+7 
        2834.58      1.03083e+7 
        2854.55      1.05327e+7 
        2874.52       1.0731e+7 
        2894.49      1.09269e+7 
        2914.46      1.11203e+7 
        2934.43      1.13116e+7 
        2952.98      1.14875e+7 
         2990.1      1.18114e+7 
           3003      1.19217e+7 
        3027.21      1.21256e+7 
        3049.83      1.23122e+7 
        3099.84      1.27128e+7 
        3149.86      1.30903e+7 
        3199.87        1.342e+7 
        3248.29      1.37214e+7 
        3296.72      1.39669e+7 
        3343.56      1.41876e+7 
        3356.25       1.4244e+7 
        3368.94      1.42989e+7 
        3394.33      1.44053e+7 
        3445.03      1.46039e+7 
        3462.43       1.4666e+7 
        3479.84      1.47258e+7 
        3495.92      1.47775e+7 
        3514.65      1.48332e+7 
         3543.6      1.49149e+7 
        3591.28      1.50346e+7 
        3635.88      1.51326e+7 
        3647.12      1.51547e+7 
        3658.96      1.51779e+7 
        3671.11      1.52005e+7 
        3682.58      1.52209e+7 
         3693.5      1.52404e+7 
        3703.57      1.52542e+7 
        3713.83      1.52744e+7 
        3724.38      1.52913e+7 
        3734.43      1.52515e+7 
        3744.62      1.53241e+7 
        3754.84      1.53438e+7 
        3765.07      1.53595e+7 
         3775.5      1.53853e+7 
        3786.22      1.54243e+7 
        3796.45       1.5212e+7 
        3806.86      1.54831e+7 
        3817.36      1.55362e+7 
        3827.86      1.54745e+7 
        3837.97      1.51676e+7 
        3848.91      1.56201e+7 
        3862.01      1.56857e+7 
        3872.59      1.56769e+7 
        3883.67      1.53446e+7 
        3894.29      1.53167e+7 
        3905.58      1.57434e+7 
        3916.16      1.58053e+7 
        3928.22      1.58301e+7 
        3938.89      1.58363e+7 
        3950.65      1.58039e+7 
        3962.28      1.54778e+7 
        3972.33      1.40768e+7 
        3982.59      1.57132e+7 
        3993.87      1.58626e+7 
        4008.28      1.58999e+7 
        4018.86      1.59089e+7 
        4032.38      1.59139e+7 
        4043.86      1.59142e+7 
        4058.85      1.59075e+7 
        4073.85      1.58773e+7 
         4085.7       1.5768e+7 
        4096.24      1.49558e+7 
        4106.25      1.46139e+7 
        4116.69      1.57313e+7 
        4128.84      1.58613e+7 
        4143.83      1.58881e+7 
        4158.83      1.58895e+7 
        4173.82      1.58844e+7 
        4188.82      1.58762e+7 
        4203.81      1.58662e+7 
        4216.52      1.58565e+7 
        4228.81      1.58462e+7 
        4243.81      1.58321e+7 
         4258.8      1.58161e+7 
         4273.8      1.57975e+7 
        4288.79      1.57733e+7 
        4303.79      1.57349e+7 
        4314.07      1.56813e+7 
        4326.14      1.54676e+7 
        4336.17      1.39512e+7 
        4346.52      1.45291e+7 
        4357.43      1.55054e+7 
        4367.98       1.5622e+7 
        4378.77       1.5646e+7 
        4393.77      1.56447e+7 
        4408.76      1.56306e+7 
        4423.76      1.56118e+7 
        4438.75      1.55906e+7 
        4453.75      1.55681e+7 
        4468.74      1.55445e+7 
        4483.74      1.55202e+7 
        4498.74      1.55233e+7 
        4513.73      1.54969e+7 
        4527.19      1.54728e+7 
        4538.73      1.54516e+7 
        4553.72      1.54236e+7 
        4568.72      1.53952e+7 
        4583.72      1.53661e+7 
        4596.53      1.53408e+7 
        4608.71      1.53164e+7 
         4623.7      1.52859e+7 
         4638.7       1.5255e+7 
         4653.7      1.52239e+7 
        4668.69      1.51922e+7 
        4683.69        1.516e+7 
        4698.68      1.51273e+7 
        4713.68      1.50939e+7 
        4724.83      1.50687e+7 
        4738.67      1.50367e+7 
        4753.67      1.50011e+7 
        4768.67      1.49641e+7 
        4783.66      1.49245e+7 
        4798.66      1.48802e+7 
        4813.65      1.48245e+7 
        4828.65      1.47341e+7 
        4839.16      1.45925e+7 
        4850.22      1.40499e+7 
        4860.28      8.41322e+6 
        4870.86      1.38021e+7 
        4881.27      1.44472e+7 
        4893.63      1.45804e+7 
        4908.63      1.46002e+7 
         4921.7      1.45871e+7 
        4933.62      1.45668e+7 
        4948.62      1.45361e+7 
        4963.61      1.45024e+7 
        4978.61      1.44672e+7 
        4993.61       1.4431e+7 
         5008.6       1.4394e+7 
         5023.6      1.43564e+7 
        5038.59      1.43184e+7 
        5053.59      1.42801e+7 
        5068.59      1.42416e+7 
        5083.58      1.42027e+7 
        5098.58      1.41637e+7 
        5113.57      1.41244e+7 
        5128.57       1.4085e+7 
        5143.57      1.40454e+7 
        5158.56      1.40056e+7 
        5173.56      1.39657e+7 
        5188.55      1.39256e+7 
        5203.55      1.38854e+7 
        5218.55      1.38451e+7 
        5233.54      1.38046e+7 
        5248.54       1.3764e+7 
        5263.53      1.37234e+7 
        5278.53      1.36826e+7 
        5293.52      1.36418e+7 
        5308.52      1.36009e+7 
        5323.52      1.35599e+7 
        5338.51      1.35189e+7 
        5353.51      1.34777e+7 
        5368.51      1.34367e+7 
         5383.5      1.33954e+7 
         5398.5      1.33539e+7 
        5413.49      1.33124e+7 
        5428.49      1.32708e+7 
        5443.48      1.32292e+7 
        5458.48      1.31876e+7 
        5473.48      1.31459e+7 
        5488.47      1.31042e+7 
        5503.47      1.30625e+7 
        5518.47      1.30207e+7 
        5533.46       1.2979e+7 
        5548.46      1.29372e+7 
        5563.45      1.28953e+7 
        5578.45      1.28535e+7 
        5593.44      1.28116e+7 
        5608.44      1.27698e+7 
        5623.44      1.27278e+7 
        5638.43      1.26859e+7 
        5653.43       1.2644e+7 
        5668.43      1.26022e+7 
        5682.86      1.25618e+7 
        5693.42      1.25323e+7 
        5704.77      1.25006e+7 
        5715.23      1.24713e+7 
        5728.41      1.24345e+7 
         5743.4      1.23926e+7 
         5758.4      1.23508e+7 
         5773.4      1.23079e+7 
        5788.39       1.2266e+7 
        5803.39      1.22242e+7 
        5818.39      1.21824e+7 
        5833.38      1.21407e+7 
        5848.38      1.20989e+7 
        5863.37      1.20572e+7 
        5878.37      1.20156e+7 
        5893.36      1.19739e+7 
        5908.36      1.19323e+7 
        5923.36      1.18908e+7 
        5938.35      1.18493e+7 
        5953.35      1.18078e+7 
        5968.34      1.17664e+7 
        5983.34       1.1725e+7 
        5998.34      1.16837e+7 
        6013.33      1.16424e+7 
        6028.33      1.16011e+7 
        6043.32      1.15598e+7 
        6058.32      1.15187e+7 
        6073.32      1.14776e+7 
        6088.31      1.14365e+7 
        6103.31      1.13955e+7 
         6118.3      1.13545e+7 
         6133.3      1.13136e+7 
         6148.3      1.12728e+7 
        6163.29       1.1232e+7 
        6178.29      1.11913e+7 
        6193.28      1.11506e+7 
        6208.28        1.111e+7 
        6223.28      1.10694e+7 
        6238.27      1.10288e+7 
        6252.16      1.09913e+7 
        6262.16      1.09643e+7 
        6273.26      1.09343e+7 
        6284.63      1.09037e+7 
        6295.99       1.0873e+7 
        6306.09      1.08457e+7 
        6316.22      1.08183e+7 
        6328.25      1.07857e+7 
        6343.24      1.07451e+7 
        6358.24      1.07042e+7 
        6373.23      1.06631e+7 
        6388.23      1.06217e+7 
        6403.23      1.05798e+7 
        6418.22       1.0537e+7 
        6433.22      1.04931e+7 
        6448.22      1.04473e+7 
        6463.21      1.03983e+7 
        6478.21      1.03439e+7 
         6493.2      1.02791e+7 
         6508.2      1.01923e+7 
        6523.19      1.00511e+7 
        6537.09      9.77243e+6 
        6548.06      9.19648e+6 
        6558.19      7.34262e+6 
        6568.58      7.72612e+6 
        6579.69      9.28906e+6 
        6590.04      9.68977e+6 
        6603.34      9.86573e+6 
        6613.66      9.91377e+6 
        6623.98      9.93045e+6 
         6634.3      9.93111e+6 
        6654.94      9.90924e+6 
        6675.58      9.87308e+6 
        6711.48      9.79721e+6 
        6741.75      9.72838e+6 
        6783.26      9.63118e+6 
        6824.78      9.53288e+6 
        6907.81      9.33757e+6 
        6990.84      9.14389e+6 
         7038.6      9.03359e+6 
        7073.87      8.95272e+6 
        7109.15      8.87236e+6 
        7179.69      8.71481e+6 
        7250.24      8.55936e+6 
        7320.78      8.40612e+6 
        7389.14      8.26016e+6 
        7406.65      8.22328e+6 
        7424.15      8.18664e+6 
        7459.17      8.11376e+6 
         7529.2      7.96959e+6 
        7599.23      7.82766e+6 
        7660.63      7.70504e+6 
        7677.88      7.67089e+6 
        7695.14      7.63721e+6 
        7729.65      7.57023e+6 
        7798.67      7.43785e+6 
        7867.69      7.30756e+6 
        7911.17      7.22654e+6 
        7936.71      7.17936e+6 
        7962.25      7.13245e+6 
        8013.32      7.04012e+6 
        8046.24      6.98122e+6 
         8064.4      6.94892e+6 
        8082.55      6.91675e+6 
        8118.86      6.85313e+6 
        8180.09      6.74704e+6 
        8191.47       6.7275e+6 
        8202.85      6.70802e+6 
        8216.85      6.68424e+6 
        8232.84      6.65716e+6 
        8264.83      6.60335e+6 
        8289.72      6.56178e+6 
        8328.82      6.49694e+6 
        8343.44      6.47284e+6 
        8367.92      6.43273e+6 
        8388.68      6.39908e+6 
        8408.65      6.36688e+6 
        8432.02      6.32937e+6 
        8467.25       6.2732e+6 
        8502.48      6.21753e+6 
        8516.58       6.1955e+6 
        8530.98      6.17298e+6 
        8545.38      6.15052e+6 
        8574.18       6.1065e+6 
        8598.39      6.06912e+6 
         8628.6      6.02375e+6 
        8646.81       5.9963e+6 
        8665.01      5.96811e+6 
        8685.59      5.93824e+6 
        8701.43      5.91471e+6 
        8750.47       5.8405e+6 
        8767.92      5.81682e+6 
        8815.35      5.74801e+6 
        8862.78      5.67632e+6 
        8900.38      5.62819e+6 
        8957.65      5.54887e+6 
        9014.91      5.45937e+6 
        9044.62      5.43015e+6 
        9072.17      5.39374e+6 
        9099.72       5.3572e+6 
        9154.81      5.28523e+6 
         9190.8      5.23795e+6 
         9209.9      5.21131e+6 
        9224.23      5.18407e+6 
        9236.17      5.17188e+6 
        9248.11      5.16261e+6 
        9262.44      5.14643e+6 
        9281.55      5.12334e+6 
        9319.76      5.07622e+6 
        9384.08      4.99714e+6 
        9448.41       4.9197e+6 
        9479.49      4.88232e+6 
        9496.11      4.86202e+6 
        9512.73      4.84079e+6 
        9529.35      4.81575e+6 
        9541.81      4.77965e+6 
         9552.2      4.77431e+6 
        9568.82      4.77255e+6 
        9585.43        4.757e+6 
        9618.67      4.72084e+6 
        9668.45      4.66498e+6 
        9768.01      4.55547e+6 
        9782.33      4.53992e+6 
        9867.57      4.44846e+6 
         9910.2      4.40335e+6 
        9952.82      4.35843e+6 
        9974.13      4.33603e+6 
        9995.44      4.31306e+6 
        10016.8      4.28771e+6 
        10026.8      4.27285e+6 
        10038.1      4.24589e+6 
        10048.7      4.15033e+6 
        10060.3      4.22155e+6 
        10080.1      4.22283e+6 
        10091.4      4.21476e+6 
        10102.7      4.20521e+6 
        10125.3      4.18435e+6 
        10170.5      4.14096e+6 
        10237.2      4.07688e+6 
        10303.9      4.01524e+6 
        10370.6      3.95454e+6 
        10437.3      3.89479e+6 
          10504      3.83595e+6 
        10570.7      3.77808e+6 
        10637.4      3.72112e+6 
        10704.1      3.66501e+6 
        10770.8      3.60969e+6 
        10837.5      3.55462e+6 
        10870.4      3.52659e+6 
        10887.3      3.51079e+6 
        10904.2      3.49153e+6 
        10916.9       3.4692e+6 
        10927.5      3.42829e+6 
        10937.6      3.24674e+6 
        10948.1       3.4063e+6 
        10960.8      3.43511e+6 
        10973.5      3.43697e+6 
        10990.5      3.42965e+6 
        11007.4      3.41887e+6 
        11041.3      3.39452e+6 
          11109      3.34391e+6 
        11176.7      3.29352e+6 
          11228      3.25582e+6 
        11244.5      3.24385e+6 
        11260.9      3.23191e+6 
        11293.8      3.20917e+6 
        11359.5      3.16415e+6 
        11425.3      3.11979e+6 
          11491      3.07614e+6 
        11556.7      3.03312e+6 
        11622.5      2.99076e+6 
        11688.2      2.94905e+6 
          11754      2.90798e+6 
        11819.7      2.86755e+6 
        11885.5      2.82773e+6 
        11951.2      2.78853e+6 
        12016.9      2.74994e+6 
        12082.7      2.71189e+6 
        12148.4      2.67447e+6 
        12214.2      2.63761e+6 
        12275.2      2.60392e+6 
        12294.1      2.59382e+6 
          12313      2.58401e+6 
        12350.8      2.56459e+6 
        12426.5      2.52623e+6 
        12502.1      2.48844e+6 
        12577.8       2.4511e+6 
        12653.5      2.41389e+6 
        12691.3      2.39491e+6 
        12710.2      2.38503e+6 
        12729.1      2.37457e+6 
          12748      2.36279e+6 
        12766.9      2.34774e+6 
        12785.9      2.32252e+6 
          12800      2.27877e+6 
        12810.7      2.18042e+6 
        12820.9      2.06244e+6 
        12831.1      2.23078e+6 
        12842.5      2.27734e+6 
        12860.7      2.29736e+6 
          12888      2.29755e+6 
        12906.2      2.29238e+6 
        12942.6      2.27862e+6 
        13015.4      2.24773e+6 
        13088.2      2.21624e+6 
          13161      2.18499e+6 
        13233.8      2.15413e+6 
        13304.8      2.12445e+6 
        13319.1      2.11874e+6 
        13333.5      2.11311e+6 
        13362.3      2.10191e+6 
        13419.8      2.07968e+6 
        13477.4      2.05769e+6 
        13534.9      2.03594e+6 
        13592.4      2.01442e+6 
          13650      1.99318e+6 
        13707.5      1.97212e+6 
          13765      1.95128e+6 
        13822.6      1.93068e+6 
        13880.1      1.91031e+6 
        13937.7      1.89016e+6 
        13995.2      1.87024e+6 
        14052.7      1.85055e+6 
        14110.3      1.83108e+6 
        14167.8      1.81183e+6 
        14225.3      1.79279e+6 
        14282.9      1.77398e+6 
        14332.1      1.75805e+6 
        14403.3      1.73587e+6 
