# Koester WD models
# teff = 6750 K (value for the effective temperature for the model. Temperatures are given in K)
# logg = 9 log(cm/s2) (value for Log(G) for the model.)
#
# column 1: WAVELENGTH (ANGSTROM), Wavelength in Angstrom
# column 2: FLUX (ERG/CM2/S/A), Flux in erg/cm2/s/A
         899.23        0.684299 
        909.241         0.89896 
        919.251         1.19872 
        929.261         1.63056 
        939.271         2.39139 
         949.28          2.5151 
        959.289         4.86331 
        969.297         6.44884 
        979.305         9.28378 
        989.312         12.4649 
        999.319         16.0986 
        1009.33         20.1604 
        1019.33         22.7978 
        1029.34         25.9314 
        1039.34         37.7899 
        1049.35         46.1293 
        1059.36         55.5946 
        1069.36         66.5072 
        1079.36         79.4276 
        1089.37          93.982 
        1099.37         111.208 
        1109.38         130.414 
        1119.38         154.154 
        1129.38         180.572 
        1139.39          208.82 
        1149.39         237.544 
        1159.39         260.291 
        1169.39         272.441 
         1179.4         278.842 
         1189.4         308.412 
         1199.4          349.32 
         1209.4         378.273 
        1219.41         426.587 
        1229.41         549.474 
        1239.41         645.704 
        1249.41         743.574 
        1259.41         855.892 
        1269.41         1004.27 
        1279.42         1183.96 
        1289.42         1367.88 
        1299.42         1563.49 
        1309.42         1777.72 
        1319.42         2001.65 
        1329.42         2263.39 
        1339.42          2534.3 
        1349.42         2829.95 
        1359.42         3171.75 
        1369.42            3526 
        1379.42         3900.73 
        1389.42         4325.16 
        1399.42          4803.4 
        1409.42         5295.94 
        1419.42         5806.98 
        1429.42         6361.13 
        1439.42         6979.05 
        1454.42         8056.99 
        1464.42         8813.24 
        1474.42         9545.98 
        1489.42         10718.1 
        1501.92         11833.6 
        1514.42         13284.6 
        1529.42         15148.1 
        1544.42         16961.2 
        1559.42         18395.4 
        1570.19         19595.1 
        1584.41         21391.7 
        1599.41         23616.2 
        1611.91         26025.2 
        1624.41         29294.6 
        1639.41         34568.8 
        1654.41         41123.4 
        1665.56         46638.8 
        1676.33         52292.1 
         1689.4         59996.6 
         1704.4         70349.4 
         1719.4         80984.3 
         1734.4           92452 
        1749.39          103492 
        1764.39          114297 
        1775.55          122855 
        1789.39          135518 
        1809.39          154560 
           1824          169549 
        1834.77          181294 
        1845.54          193409 
         1856.3          207562 
        1867.07          221850 
        1882.44          243922 
        1894.73          263244 
        1907.03          284092 
        1919.18          306271 
        1931.21          328381 
        1943.24          355477 
        1953.98          380610 
        1968.59          412523 
         1983.2          446700 
        1997.81          483413 
        2012.42          522519 
         2023.2          555217 
        2033.25          587949 
        2050.14          639028 
        2067.03          693359 
        2083.92          753134 
        2100.82          817197 
        2116.25          879715 
        2127.83          930065 
        2139.41          990173 
        2154.84      1.06379e+6 
        2165.47      1.11746e+6 
        2186.74      1.22708e+6 
        2200.72      1.30353e+6 
         2214.7      1.38373e+6 
        2232.02      1.47797e+6 
        2242.65       1.5371e+6 
        2253.28      1.59713e+6 
        2263.91      1.66465e+6 
        2274.55      1.75311e+6 
        2285.18       1.8379e+6 
        2301.12      1.97033e+6 
        2313.13       2.0809e+6 
        2325.15      2.17707e+6 
        2337.16      2.28132e+6 
        2349.17      2.39437e+6 
        2360.02       2.5003e+6 
        2378.72      2.70145e+6 
        2397.42      2.92106e+6 
        2409.27      3.07726e+6 
        2421.13      3.24338e+6 
        2432.99      3.43244e+6 
        2445.35      3.62383e+6 
        2456.19      3.79639e+6 
        2474.59      4.13839e+6 
        2492.99      4.48899e+6 
        2510.01      4.82316e+6 
        2527.04      5.13826e+6 
        2544.07      5.45911e+6 
        2559.23      5.74893e+6 
         2574.4      6.09441e+6 
        2589.56       6.4478e+6 
        2604.73      6.81801e+6 
        2619.89      7.18897e+6 
        2642.78      7.74861e+6 
        2653.95      8.02627e+6 
        2665.11      8.26387e+6 
        2676.28       8.4795e+6 
        2698.62      8.90648e+6 
         2728.4      9.46653e+6 
        2756.11       9.9766e+6 
        2768.51      1.02048e+7 
        2811.53      1.09797e+7 
        2842.15      1.15165e+7 
        2854.55      1.17291e+7 
        2897.57      1.24749e+7 
        2925.28      1.29423e+7 
        2952.98       1.3399e+7 
        2965.38      1.35771e+7 
        2980.69       1.3794e+7 
         3008.4      1.41779e+7 
        3051.42      1.47523e+7 
        3125.07      1.57411e+7 
        3137.46      1.58999e+7 
        3149.86      1.60564e+7 
        3174.64      1.63643e+7 
        3200.15      1.66727e+7 
        3224.22      1.69561e+7 
        3236.26       1.7095e+7 
        3248.29       1.7232e+7 
        3260.33      1.73223e+7 
        3272.37      1.74109e+7 
        3284.41      1.74979e+7 
        3296.44      1.75833e+7 
        3320.52      1.77495e+7 
        3346.73      1.79236e+7 
        3399.16      1.82395e+7 
        3445.17      1.84945e+7 
        3491.18      1.87128e+7 
        3530.76      1.88848e+7 
         3543.6      1.89377e+7 
        3556.44      1.89864e+7 
        3572.95       1.9047e+7 
        3591.28      1.91116e+7 
        3609.61      1.91712e+7 
        3635.88      1.92523e+7 
        3647.12      1.92844e+7 
        3658.96      1.93178e+7 
        3671.11      1.93503e+7 
        3682.58      1.93796e+7 
         3693.5      1.94062e+7 
        3703.57      1.94295e+7 
        3713.83      1.94525e+7 
        3724.38       1.9473e+7 
        3734.43      1.94859e+7 
        3744.62      1.95042e+7 
        3754.84      1.95187e+7 
        3765.07      1.95323e+7 
         3775.5      1.95454e+7 
        3786.22      1.95581e+7 
        3796.45      1.95638e+7 
        3807.84      1.95813e+7 
        3818.92      1.95919e+7 
        3830.45      1.95974e+7 
        3840.76      1.96078e+7 
        3851.98      1.96243e+7 
        3862.01      1.96332e+7 
        3872.59      1.96368e+7 
         3884.4      1.95968e+7 
        3894.46      1.96153e+7 
        3908.89      1.96769e+7 
        3923.89       1.9696e+7 
        3935.81      1.97024e+7 
        3946.58      1.96942e+7 
        3957.31      1.96371e+7 
        3967.38        1.929e+7 
        3977.86      1.95542e+7 
        3988.87      1.97072e+7 
        4003.87      1.97551e+7 
        4018.86      1.97705e+7 
        4032.38      1.97751e+7 
        4043.86      1.97732e+7 
        4058.85      1.97588e+7 
        4073.85      1.97092e+7 
           4084      1.96004e+7 
        4094.68      1.90994e+7 
        4104.78      1.84514e+7 
        4116.23      1.95015e+7 
        4128.84      1.96838e+7 
        4143.83      1.97332e+7 
        4158.83      1.97425e+7 
        4173.82      1.97388e+7 
        4188.82       1.9729e+7 
        4203.81      1.97154e+7 
        4216.52      1.97017e+7 
        4228.81      1.96863e+7 
        4243.81      1.96645e+7 
         4258.8      1.96382e+7 
         4273.8       1.9605e+7 
        4288.79      1.95577e+7 
        4303.79      1.94745e+7 
        4314.07      1.93549e+7 
        4326.14      1.89397e+7 
        4336.17      1.72071e+7 
         4346.3      1.76909e+7 
        4357.43      1.90112e+7 
        4367.98      1.92664e+7 
        4378.77      1.93453e+7 
        4393.77        1.937e+7 
        4408.76      1.93603e+7 
        4423.76      1.93369e+7 
        4438.75      1.93076e+7 
        4453.75       1.9275e+7 
        4468.74      1.92402e+7 
        4483.74      1.92039e+7 
        4498.74      1.91677e+7 
        4513.73      1.91333e+7 
        4527.19      1.91014e+7 
        4538.73      1.90733e+7 
        4553.72      1.90358e+7 
        4568.72      1.89972e+7 
        4583.72      1.89576e+7 
        4596.53      1.89228e+7 
        4608.71      1.88889e+7 
         4623.7       1.8846e+7 
         4638.7      1.88022e+7 
         4653.7      1.87576e+7 
        4668.69      1.87121e+7 
        4683.69      1.86656e+7 
        4698.68      1.86177e+7 
        4713.68      1.85683e+7 
        4724.83      1.85304e+7 
        4738.67      1.84818e+7 
        4753.67      1.84262e+7 
        4768.67      1.83659e+7 
        4783.66      1.82975e+7 
        4798.66      1.82131e+7 
        4813.65      1.80924e+7 
        4828.65      1.78687e+7 
        4839.16       1.7514e+7 
        4850.22      1.64224e+7 
        4860.28       1.1784e+7 
        4870.86      1.60537e+7 
        4881.87      1.72931e+7 
        4893.63      1.76516e+7 
        4908.63      1.77804e+7 
         4921.7      1.78018e+7 
        4933.62      1.77937e+7 
        4948.62       1.7766e+7 
        4963.61      1.77284e+7 
        4978.61      1.76854e+7 
        4993.61      1.76392e+7 
         5008.6      1.75908e+7 
         5023.6       1.7541e+7 
        5038.59      1.74902e+7 
        5053.59      1.74386e+7 
        5068.59      1.73865e+7 
        5083.58      1.73339e+7 
        5098.58      1.72807e+7 
        5113.57      1.72272e+7 
        5128.57      1.71735e+7 
        5143.57      1.71195e+7 
        5158.56      1.70654e+7 
        5173.56       1.7011e+7 
        5188.55      1.69565e+7 
        5203.55      1.69018e+7 
        5218.55      1.68469e+7 
        5233.54       1.6792e+7 
        5248.54       1.6737e+7 
        5263.53      1.66819e+7 
        5278.53      1.66268e+7 
        5293.52       1.6572e+7 
        5308.52       1.6517e+7 
        5323.52       1.6462e+7 
        5338.51      1.64069e+7 
        5353.51      1.63517e+7 
        5368.51      1.62976e+7 
         5383.5      1.62419e+7 
         5398.5       1.6186e+7 
        5413.49      1.61301e+7 
        5428.49      1.60742e+7 
        5443.48      1.60183e+7 
        5458.48      1.59624e+7 
        5473.48      1.59066e+7 
        5488.47       1.5851e+7 
        5503.47      1.57955e+7 
        5518.47      1.57399e+7 
        5533.46      1.56843e+7 
        5548.46      1.56287e+7 
        5563.45      1.55732e+7 
        5578.45      1.55177e+7 
        5593.44      1.54622e+7 
        5608.44      1.54067e+7 
        5623.44      1.53513e+7 
        5638.43      1.52959e+7 
        5653.43      1.52406e+7 
        5668.43      1.51888e+7 
        5682.86      1.51356e+7 
        5693.42      1.50967e+7 
        5704.77      1.50549e+7 
        5715.23      1.50164e+7 
        5728.41       1.4968e+7 
         5743.4       1.4913e+7 
         5758.4       1.4858e+7 
         5773.4      1.47983e+7 
        5788.39      1.47434e+7 
        5803.39      1.46885e+7 
        5818.39      1.46336e+7 
        5833.38      1.45789e+7 
        5848.38      1.45242e+7 
        5863.37      1.44696e+7 
        5878.37      1.44151e+7 
        5893.36      1.43607e+7 
        5908.36      1.43063e+7 
        5923.36      1.42521e+7 
        5938.35      1.41979e+7 
        5953.35      1.41438e+7 
        5968.34      1.40897e+7 
        5983.34      1.40358e+7 
        5998.34      1.39819e+7 
        6013.33      1.39281e+7 
        6028.33      1.38743e+7 
        6043.32      1.38207e+7 
        6058.32      1.37671e+7 
        6073.32      1.37136e+7 
        6088.31      1.36601e+7 
        6103.31      1.36068e+7 
         6118.3      1.35535e+7 
         6133.3      1.35002e+7 
         6148.3      1.34471e+7 
        6163.29      1.33939e+7 
        6178.29      1.33408e+7 
        6193.28      1.32877e+7 
        6208.28      1.32346e+7 
        6223.28      1.31814e+7 
        6238.27      1.31282e+7 
        6252.16      1.30789e+7 
        6262.16      1.30433e+7 
        6273.26      1.30037e+7 
        6284.63       1.2963e+7 
        6295.99      1.29222e+7 
        6306.09      1.28858e+7 
        6316.22       1.2849e+7 
        6328.25       1.2805e+7 
        6343.24      1.27496e+7 
        6358.24      1.26933e+7 
        6373.23      1.26358e+7 
        6388.23      1.25765e+7 
        6403.23      1.25149e+7 
        6418.22        1.245e+7 
        6433.22      1.23802e+7 
        6448.22       1.2303e+7 
        6463.21      1.22142e+7 
        6478.21      1.21063e+7 
         6493.2      1.19653e+7 
         6508.2      1.17612e+7 
        6523.19      1.14263e+7 
        6537.09      1.08434e+7 
        6548.06       9.9126e+6 
        6558.19      7.94867e+6 
        6568.58      8.27316e+6 
        6578.88      9.99322e+6 
        6588.98      1.07347e+7 
        6603.34      1.12219e+7 
        6613.66      1.13935e+7 
        6629.14       1.1524e+7 
        6639.46      1.15651e+7 
        6649.78      1.15851e+7 
         6660.1      1.15911e+7 
        6670.42      1.15878e+7 
        6691.06       1.1563e+7 
        6711.48      1.15244e+7 
         6752.3      1.14269e+7 
        6824.78      1.12276e+7 
        6897.26      1.10201e+7 
        6969.74      1.08113e+7 
        7042.22      1.06038e+7 
        7109.15      1.04144e+7 
        7176.07      1.02289e+7 
           7243      1.00459e+7 
        7309.93      9.86564e+6 
        7360.21      9.73203e+6 
        7376.86      9.68999e+6 
        7393.51      9.64617e+6 
        7426.82      9.55977e+6 
        7493.43      9.38912e+6 
        7560.04      9.22123e+6 
        7575.42      9.18288e+6 
        7626.65      9.05617e+6 
        7677.88      8.93111e+6 
        7729.11      8.80865e+6 
        7780.35      8.68782e+6 
        7831.58      8.56854e+6 
        7882.81      8.45085e+6 
        7905.84      8.39848e+6 
        7934.04      8.33474e+6 
        7962.25       8.2715e+6 
        8018.66      8.14706e+6 
         8067.6      8.04062e+6 
        8082.55      8.00839e+6 
         8097.5      7.97638e+6 
         8127.4      7.91273e+6 
        8171.58      7.81964e+6 
        8187.21      7.78694e+6 
        8200.85      7.75854e+6 
        8216.85      7.72549e+6 
        8232.84      7.69257e+6 
        8264.83      7.62719e+6 
        8289.72      7.57674e+6 
        8328.82       7.4981e+6 
        8343.44      7.46889e+6 
        8367.92      7.42028e+6 
        8388.68      7.37951e+6 
        8408.65      7.34049e+6 
        8432.02      7.29509e+6 
        8467.25      7.22717e+6 
        8502.48      7.15994e+6 
        8516.58      7.13321e+6 
        8530.98        7.106e+6 
        8545.38      7.07908e+6 
        8574.18      7.02558e+6 
        8598.39      6.98087e+6 
         8628.6      6.92555e+6 
        8646.81       6.8924e+6 
        8665.01      6.85938e+6 
        8685.59      6.82241e+6 
        8701.43      6.79401e+6 
        8750.47       6.7068e+6 
        8767.92      6.67617e+6 
        8815.35      6.59345e+6 
        8862.78      6.51218e+6 
        8900.38       6.4489e+6 
        8957.65      6.35346e+6 
        9014.91        6.259e+6 
        9044.62      6.21134e+6 
        9072.17      6.16704e+6 
        9099.72      6.12306e+6 
        9154.81      6.03682e+6 
         9190.8      5.98115e+6 
         9209.9      5.95175e+6 
        9229.01       5.9214e+6 
        9267.22      5.86479e+6 
         9303.2      5.81091e+6 
        9343.64      5.75094e+6 
        9384.08      5.69162e+6 
        9464.96      5.57579e+6 
        9545.72      5.45889e+6 
        9561.21      5.44026e+6 
        9576.69      5.41959e+6 
        9607.66      5.37775e+6 
        9668.45      5.29594e+6 
        9729.24      5.21602e+6 
        9790.04      5.13735e+6 
        9850.83      5.05994e+6 
        9870.42      5.03522e+6 
        9911.62      4.98367e+6 
        9952.82      4.93246e+6 
        10021.1      4.84688e+6 
        10035.2      4.82734e+6 
        10049.4      4.80309e+6 
        10077.7      4.77978e+6 
          10106      4.74886e+6 
        10162.5      4.68443e+6 
        10201.1      4.64057e+6 
        10219.1      4.62015e+6 
        10237.2      4.59979e+6 
        10273.3      4.56015e+6 
        10345.5      4.48192e+6 
        10417.8      4.40514e+6 
          10490      4.32965e+6 
        10562.2       4.2557e+6 
        10634.4      4.18306e+6 
        10706.7      4.11165e+6 
        10778.9      4.04131e+6 
        10851.1      3.97082e+6 
        10908.6       3.9071e+6 
        10923.4      3.88455e+6 
        10934.4      3.86306e+6 
        10945.4      3.85744e+6 
        10960.2       3.8559e+6 
        10974.9      3.84899e+6 
        11004.4      3.82797e+6 
        11033.8      3.80365e+6 
        11063.3      3.77842e+6 
        11122.2      3.72737e+6 
        11181.1      3.67661e+6 
        11219.1      3.64415e+6 
          11240      3.62647e+6 
        11260.9      3.60884e+6 
        11302.7      3.57504e+6 
        11386.2      3.50847e+6 
        11469.7      3.44331e+6 
        11553.2      3.37941e+6 
        11636.7      3.31683e+6 
        11720.3      3.25557e+6 
        11803.8      3.19557e+6 
        11887.3      3.13683e+6 
        11970.8      3.07931e+6 
        12054.3      3.02282e+6 
        12137.8      2.96763e+6 
        12158.1      2.95442e+6 
        12221.4      2.91356e+6 
        12284.6      2.87334e+6 
        12347.9      2.83513e+6 
        12411.2      2.79743e+6 
        12474.4      2.76019e+6 
        12537.7      2.72332e+6 
          12601      2.68659e+6 
        12664.2      2.64928e+6 
        12695.9      2.62969e+6 
        12727.5      2.60819e+6 
        12743.3      2.59589e+6 
        12759.1      2.58139e+6 
        12774.9      2.56294e+6 
        12790.8      2.53672e+6 
        12804.4      2.50316e+6 
          12818      2.44895e+6 
        12830.8      2.48672e+6 
        12843.6      2.50516e+6 
        12856.4      2.51408e+6 
        12869.2      2.51711e+6 
          12882      2.51671e+6 
        12907.6      2.51064e+6 
        12933.2      2.50125e+6 
        12984.4      2.47845e+6 
        13035.6      2.45385e+6 
        13086.7      2.42879e+6 
        13137.9       2.4037e+6 
        13189.1      2.37874e+6 
        13240.3      2.35399e+6 
        13274.6      2.33752e+6 
        13291.5      2.32948e+6 
        13308.4      2.32146e+6 
        13342.1      2.30613e+6 
        13409.5      2.27578e+6 
          13477      2.24585e+6 
        13544.4      2.21635e+6 
        13611.9      2.18728e+6 
        13679.3      2.15877e+6 
        13746.8      2.13052e+6 
        13814.3      2.10269e+6 
        13881.7      2.07526e+6 
        13949.2      2.04823e+6 
        14016.6      2.02161e+6 
        14084.1      1.99538e+6 
        14151.5      1.96952e+6 
          14219      1.94405e+6 
        14240.8      1.93589e+6 
        14286.4      1.91896e+6 
        14332.1      1.90219e+6 
        14389.1      1.88185e+6 
        14423.4      1.86973e+6 
        14457.6      1.85771e+6 
        14469.2      1.85369e+6 
        14526.2      1.83401e+6 
        14581.2      1.81523e+6 
        14597.2      1.80985e+6 
        14613.2      1.80448e+6 
        14645.2      1.79381e+6 
        14709.2      1.77268e+6 
