# Koester WD models
# teff = 6000 K (value for the effective temperature for the model. Temperatures are given in K)
# logg = 8.5 log(cm/s2) (value for Log(G) for the model.)
#
# column 1: WAVELENGTH (ANGSTROM), Wavelength in Angstrom
# column 2: FLUX (ERG/CM2/S/A), Flux in erg/cm2/s/A
         899.23       0.0408256 
        909.241         0.05532 
        919.251       0.0744994 
        929.261         0.10053 
        939.271        0.136494 
         949.28        0.173953 
        959.289        0.261435 
        969.297        0.359191 
        979.305        0.494138 
        989.312        0.654284 
        999.319        0.848956 
        1009.33         1.08729 
        1019.33         1.35482 
        1029.34         1.66654 
        1039.34          2.1798 
        1049.35          2.7088 
        1059.36         3.35007 
        1069.36          4.1131 
        1079.36         5.04172 
        1089.37         6.13179 
        1099.37         7.44815 
        1109.38         8.98323 
        1119.38         10.8646 
        1129.38         13.0494 
        1139.39         15.5468 
        1149.39         18.3239 
        1159.39         21.0726 
        1169.39         23.4466 
         1179.4         25.8602 
         1189.4         30.0568 
         1199.4          35.227 
         1209.4         40.8793 
        1219.41         47.7117 
        1229.41         57.1465 
        1239.41         67.1987 
        1249.41         78.3755 
        1259.41         91.1744 
        1269.41         107.192 
        1279.42         126.436 
        1289.42          147.43 
        1299.42         170.236 
        1309.42          196.11 
        1319.42           224.2 
        1329.42         256.635 
        1339.42         291.707 
        1349.42         330.873 
        1359.42         375.719 
        1369.42         423.543 
        1379.42         476.605 
        1389.42         536.471 
        1399.42         602.356 
        1409.42         673.202 
        1419.42         751.956 
        1429.42         838.287 
        1439.42         931.146 
        1454.42         1090.51 
        1464.42         1210.99 
        1474.42         1338.52 
        1489.42          1539.8 
        1504.42         1770.38 
        1514.42         1955.22 
        1529.42         2267.88 
        1544.42         2596.13 
        1559.42         2911.45 
        1570.19         3156.14 
        1584.41         3526.97 
        1599.41          3973.8 
        1614.41         4525.21 
        1629.41         5250.95 
        1644.41         6177.91 
        1659.41          7245.3 
        1670.17          8083.6 
         1684.4          9283.5 
         1699.4         10726.6 
         1714.4         12256.1 
         1729.4         13888.9 
         1744.4         15597.3 
        1759.39         17333.3 
         1771.7         18851.6 
        1784.39         20600.4 
        1799.39         22852.1 
        1819.38         26076.4 
        1834.77         28779.8 
        1845.54         30783.6 
         1856.3         32981.1 
        1867.07         35260.9 
        1882.44         38772.9 
        1894.73         41820.6 
        1907.03         45092.5 
        1919.18         48541.1 
        1931.21         52070.6 
        1943.24         56066.7 
        1955.27         60251.3 
        1966.01         64002.4 
        1976.33         67780.5 
        1986.66           71738 
        1996.81         75821.7 
        2007.31         80250.7 
        2017.81         84908.8 
        2028.31         90207.7 
        2038.81         95306.8 
        2049.31          100564 
        2067.03          109974 
        2084.76          120355 
        2102.48          131601 
        2116.25          140962 
        2130.03          151011 
         2143.8          162144 
        2157.58          173243 
        2181.27          193794 
        2197.07          208621 
        2211.03          222505 
        2225.68          237311 
        2240.32          252590 
        2254.97          268501 
        2268.39          285919 
        2281.81          304814 
         2299.7          331419 
        2313.13          353096 
        2326.57          373102 
        2340.01          394795 
        2353.44          418064 
        2371.27          451617 
        2386.74          483039 
        2398.01          507942 
        2409.27          534712 
        2420.54          563196 
        2431.81          595429 
        2443.08          627631 
        2456.19          666866 
        2474.59          733135 
        2492.99          803481 
        2510.01          873539 
        2527.04          943084 
        2543.14      1.01186e+6 
        2555.21      1.06539e+6 
        2567.28      1.12738e+6 
        2579.35      1.19548e+6 
        2591.43      1.26663e+6 
        2605.66       1.3563e+6 
        2618.66      1.44025e+6 
        2631.66      1.52626e+6 
        2644.67      1.61563e+6 
        2657.67      1.70844e+6 
        2670.67      1.78368e+6 
        2683.68      1.86019e+6 
        2702.26      1.97141e+6 
        2729.18      2.13626e+6 
        2742.65      2.22027e+6 
        2756.11      2.30555e+6 
        2769.57      2.39546e+6 
        2783.03      2.48645e+6 
         2796.5      2.57852e+6 
        2809.96      2.67164e+6 
        2823.42      2.76577e+6 
        2846.15      2.92711e+6 
        2862.95      3.05209e+6 
         2873.7      3.13603e+6 
        2913.34      3.45283e+6 
        2933.16      3.61528e+6 
        2952.98      3.78047e+6 
         2972.8      3.93359e+6 
        2992.62      4.08812e+6 
         3013.1      4.24919e+6 
        3032.26      4.40099e+6 
        3051.42      4.55386e+6 
        3070.58      4.72464e+6 
        3089.74      4.89683e+6 
        3106.26      5.04631e+6 
        3128.06      5.24476e+6 
        3149.86      5.44416e+6 
        3193.45      5.86784e+6 
         3225.8      6.18435e+6 
        3237.05      6.29471e+6 
        3248.29      6.40514e+6 
        3259.54      6.48107e+6 
        3270.79      6.55672e+6 
        3282.03      6.63212e+6 
        3304.53      6.78216e+6 
        3346.73      7.06051e+6 
        3417.09      7.50781e+6 
        3431.13      7.59533e+6 
        3445.17       7.6822e+6 
        3473.24        7.846e+6 
        3515.17      8.08545e+6 
        3529.39      8.16525e+6 
         3543.6      8.24436e+6 
        3572.04      8.39544e+6 
        3591.28        8.496e+6 
        3620.59      8.64356e+6 
        3635.88       8.7193e+6 
        3647.12      8.77434e+6 
        3658.96      8.83171e+6 
        3671.11      8.88954e+6 
        3682.58      8.94317e+6 
         3693.5      8.99328e+6 
        3703.57      9.03871e+6 
        3713.83      9.08423e+6 
        3724.38      9.12771e+6 
        3734.43       9.1639e+6 
        3744.62       9.2016e+6 
        3754.84      9.23804e+6 
        3765.07      9.27395e+6 
         3775.5      9.30998e+6 
        3786.22      9.34646e+6 
        3796.45      9.37985e+6 
        3807.84      9.41809e+6 
        3818.92      9.45399e+6 
        3830.45      9.49078e+6 
        3840.76      9.52418e+6 
        3851.98      9.56093e+6 
        3862.01      9.59229e+6 
        3872.59      9.62383e+6 
         3884.4      9.64968e+6 
        3894.46      9.68154e+6 
        3908.89      9.73306e+6 
        3923.89      9.77884e+6 
        3935.81      9.81402e+6 
        3946.58      9.84292e+6 
        3957.31      9.86218e+6 
        3967.38      9.81591e+6 
        3977.86      9.90095e+6 
        3988.87      9.95853e+6 
        4003.87      1.00041e+7 
        4018.86       1.0044e+7 
        4032.38      1.00781e+7 
        4043.86      1.01055e+7 
        4058.85      1.01383e+7 
        4073.85      1.01639e+7 
           4084      1.01665e+7 
        4095.68      1.00582e+7 
        4105.79       1.0004e+7 
        4116.23      1.02201e+7 
        4128.84      1.02799e+7 
        4143.83       1.0319e+7 
        4158.83      1.03505e+7 
        4173.82      1.03789e+7 
        4188.82      1.04052e+7 
        4203.81      1.04298e+7 
        4216.52      1.04499e+7 
        4228.81      1.04684e+7 
        4243.81      1.04894e+7 
         4258.8      1.05085e+7 
         4273.8      1.05253e+7 
        4288.79      1.05384e+7 
        4303.79      1.05433e+7 
        4314.07      1.05325e+7 
        4326.14      1.04546e+7 
        4336.17       9.9892e+6 
        4346.86      1.01932e+7 
        4357.43      1.05163e+7 
        4367.98       1.0583e+7 
        4378.77      1.06105e+7 
        4393.77      1.06311e+7 
        4408.76      1.06424e+7 
        4423.76       1.0649e+7 
        4438.75      1.06539e+7 
        4453.75      1.06578e+7 
        4468.74      1.06608e+7 
        4483.74       1.0663e+7 
        4498.74      1.06655e+7 
        4513.73      1.06728e+7 
        4527.19      1.06782e+7 
        4538.73      1.06822e+7 
        4553.72      1.06863e+7 
        4568.72      1.06895e+7 
        4583.72      1.06916e+7 
        4596.53      1.06923e+7 
        4608.71      1.06915e+7 
         4623.7      1.06896e+7 
         4638.7      1.06871e+7 
         4653.7      1.06839e+7 
        4668.69      1.06799e+7 
        4683.69      1.06752e+7 
        4698.68      1.06694e+7 
        4713.68      1.06626e+7 
        4724.83      1.06569e+7 
        4738.67      1.06493e+7 
        4753.67      1.06399e+7 
        4768.67       1.0629e+7 
        4783.66      1.06157e+7 
        4798.66       1.0598e+7 
        4813.65      1.05707e+7 
        4828.65      1.05159e+7 
        4839.16      1.04198e+7 
        4849.39      1.01221e+7 
        4859.47      8.60583e+6 
        4869.88       9.8673e+6 
        4880.05      1.03366e+7 
        4891.02       1.0457e+7 
        4903.18      1.04964e+7 
        4913.63      1.05068e+7 
        4925.16      1.05086e+7 
        4938.62      1.05046e+7 
        4953.62      1.04963e+7 
        4968.61      1.04858e+7 
        4983.61      1.04739e+7 
         4998.6       1.0461e+7 
         5013.6      1.04473e+7 
         5028.6       1.0433e+7 
        5043.59      1.04182e+7 
        5058.59      1.04031e+7 
        5073.58      1.03875e+7 
        5088.58      1.03714e+7 
        5103.58      1.03548e+7 
        5118.57       1.0338e+7 
        5133.57      1.03208e+7 
        5148.56      1.03034e+7 
        5163.56      1.02857e+7 
        5178.56      1.02678e+7 
        5193.55      1.02494e+7 
        5208.55      1.02309e+7 
        5223.54      1.02121e+7 
        5238.54      1.01931e+7 
        5253.54      1.01739e+7 
        5268.53      1.01544e+7 
        5283.53      1.01353e+7 
        5298.52      1.01162e+7 
        5313.52      1.00969e+7 
        5328.52      1.00774e+7 
        5343.51      1.00576e+7 
        5358.51      1.00375e+7 
         5373.5      1.00175e+7 
         5388.5      9.99623e+6 
         5403.5      9.97481e+6 
        5418.49      9.95323e+6 
        5433.49      9.93145e+6 
        5448.48      9.90956e+6 
        5463.48      9.88753e+6 
        5478.48      9.86567e+6 
        5493.47      9.84383e+6 
        5508.47      9.82184e+6 
        5523.46       9.7997e+6 
        5538.46      9.77742e+6 
        5553.46      9.75499e+6 
        5568.45       9.7324e+6 
        5583.45      9.70975e+6 
        5598.44      9.68691e+6 
        5613.44      9.66385e+6 
        5628.44      9.64076e+6 
        5643.43      9.61755e+6 
        5658.43      9.59424e+6 
        5673.42      9.57158e+6 
         5686.2      9.55154e+6 
        5698.42      9.53225e+6 
        5708.88       9.5157e+6 
        5723.41      9.49264e+6 
        5738.41      9.46873e+6 
         5753.4      9.44476e+6 
         5768.4      9.41928e+6 
        5783.39      9.39506e+6 
        5798.39      9.37077e+6 
        5813.39       9.3464e+6 
        5828.38      9.32195e+6 
        5843.38      9.29742e+6 
        5858.37      9.27282e+6 
        5873.37      9.24813e+6 
        5888.37       9.2234e+6 
        5903.36      9.19861e+6 
        5918.36      9.17373e+6 
        5933.35      9.14879e+6 
        5948.35      9.12381e+6 
        5963.35      9.09874e+6 
        5978.34      9.07361e+6 
        5993.34      9.04842e+6 
        6008.33      9.02316e+6 
        6023.33       8.9978e+6 
        6038.32      8.97245e+6 
        6053.32      8.94704e+6 
        6068.32      8.92162e+6 
        6083.31      8.89611e+6 
        6098.31      8.87057e+6 
        6113.31        8.845e+6 
         6128.3      8.81936e+6 
         6143.3      8.79366e+6 
        6158.29      8.76793e+6 
        6173.29      8.74214e+6 
        6188.28      8.71632e+6 
        6203.28       8.6904e+6 
        6218.28      8.66442e+6 
        6233.27      8.63841e+6 
        6244.38      8.61905e+6 
        6256.04       8.5987e+6 
        6266.59      8.58026e+6 
        6278.26      8.55974e+6 
        6290.52      8.53816e+6 
        6302.31      8.51727e+6 
        6312.59      8.49898e+6 
        6323.25      8.47991e+6 
        6338.24      8.45289e+6 
        6353.24      8.42556e+6 
        6368.24      8.39782e+6 
        6383.23      8.36955e+6 
        6398.23      8.34055e+6 
        6413.22      8.31055e+6 
        6428.22       8.2791e+6 
        6443.22      8.24542e+6 
        6458.21      8.20829e+6 
        6473.21      8.16547e+6 
         6488.2       8.1125e+6 
         6503.2      8.04006e+6 
         6518.2      7.92555e+6 
        6532.67      7.71506e+6 
        6543.19      7.39949e+6 
        6554.64       6.5752e+6 
        6564.69       5.4463e+6 
        6575.67      6.98737e+6 
        6585.74      7.45937e+6 
        6598.17      7.70073e+6 
         6608.5       7.7908e+6 
        6623.98      7.84952e+6 
         6634.3      7.86416e+6 
        6644.62      7.86856e+6 
        6660.33      7.86378e+6 
         6685.9       7.8406e+6 
        6711.48       7.8084e+6 
        6762.62      7.73347e+6 
        6802.75      7.67058e+6 
        6813.77      7.65301e+6 
        6824.78      7.63536e+6 
        6846.81      7.60011e+6 
        6890.86      7.52908e+6 
        6978.98      7.38636e+6 
        7025.03      7.31184e+6 
        7067.09      7.24392e+6 
        7109.15      7.17625e+6 
        7193.26      7.04279e+6 
        7277.38      6.91053e+6 
        7329.48      6.82926e+6 
         7361.5      6.77959e+6 
        7393.51      6.73074e+6 
        7457.55      6.63322e+6 
        7521.58      6.53665e+6 
        7585.61      6.44099e+6 
        7621.41      6.38793e+6 
        7649.65       6.3463e+6 
        7677.88      6.30486e+6 
        7734.35      6.22324e+6 
        7790.83      6.14241e+6 
         7847.3      6.06233e+6 
        7903.77      5.98307e+6 
        7958.24      5.90739e+6 
        7974.27      5.88533e+6 
         7990.3      5.86341e+6 
        8022.35      5.81974e+6 
        8082.55       5.7384e+6 
        8142.75      5.65829e+6 
        8200.85      5.58182e+6 
        8216.85        5.561e+6 
        8232.84      5.54023e+6 
        8264.83      5.49895e+6 
        8289.72        5.467e+6 
        8328.82      5.41714e+6 
        8343.44      5.39858e+6 
        8367.92      5.36766e+6 
        8388.68      5.34165e+6 
        8408.65      5.31677e+6 
        8432.02      5.28774e+6 
        8467.25      5.24426e+6 
        8502.48      5.20113e+6 
        8516.58      5.18394e+6 
        8530.98      5.16644e+6 
        8545.38       5.1491e+6 
        8574.18      5.11461e+6 
        8598.39      5.08574e+6 
         8628.6      5.04995e+6 
        8646.81       5.0285e+6 
        8665.01       5.0071e+6 
        8685.59      4.98304e+6 
        8701.43       4.9646e+6 
        8750.47      4.90783e+6 
        8767.92      4.88782e+6 
        8815.35      4.83372e+6 
        8862.78      4.78056e+6 
        8900.38      4.73887e+6 
        8957.65      4.67601e+6 
        9014.91      4.61381e+6 
        9044.62      4.58201e+6 
        9072.17      4.55261e+6 
        9099.72      4.52339e+6 
        9154.81      4.46599e+6 
         9190.8      4.42886e+6 
         9209.9      4.40926e+6 
        9229.01      4.38953e+6 
        9267.22      4.35101e+6 
         9303.2      4.31482e+6 
        9343.64      4.27448e+6 
        9384.08      4.23455e+6 
        9464.96      4.15636e+6 
        9545.72      4.07898e+6 
        9561.21      4.06497e+6 
        9576.69      4.05064e+6 
        9607.66      4.02193e+6 
        9668.45      3.96604e+6 
        9729.24      3.91135e+6 
        9790.04      3.85744e+6 
        9850.83      3.80425e+6 
        9870.42      3.78725e+6 
        9911.62      3.75178e+6 
        9952.82       3.7166e+6 
        10021.1      3.65895e+6 
        10035.2      3.64664e+6 
        10049.4       3.6335e+6 
        10077.7      3.61242e+6 
        10134.2      3.56715e+6 
        10144.5      3.55895e+6 
        10190.8      3.52195e+6 
        10237.2      3.48528e+6 
        10329.9      3.41463e+6 
        10422.6      3.34542e+6 
        10515.3      3.27766e+6 
          10608      3.21134e+6 
        10700.7      3.14643e+6 
        10793.4       3.0828e+6 
        10834.1      3.05517e+6 
        10886.1      3.01959e+6 
        10912.1       3.0005e+6 
        10938.1      2.97714e+6 
        10964.1      2.96651e+6 
        10990.1      2.95158e+6 
          11042      2.91911e+6 
          11094      2.88634e+6 
          11146      2.85383e+6 
          11198      2.82169e+6 
          11239      2.79658e+6 
          11250      2.78992e+6 
        11260.9      2.78328e+6 
        11282.8      2.77052e+6 
        11326.6      2.74518e+6 
        11414.2      2.69525e+6 
        11501.8       2.6463e+6 
        11589.4      2.59828e+6 
          11677      2.55122e+6 
        11764.6      2.50507e+6 
        11852.2      2.45985e+6 
        11939.8      2.41554e+6 
        12027.4       2.3721e+6 
          12115      2.32953e+6 
        12202.6       2.2878e+6 
        12284.6      2.24947e+6 
        12366.6      2.21345e+6 
        12448.7      2.17802e+6 
        12530.7      2.14314e+6 
        12612.7      2.10872e+6 
        12694.7       2.0743e+6 
        12735.4      2.05647e+6 
          12756      2.04652e+6 
        12776.7       2.0348e+6 
        12797.4      2.01857e+6 
        12807.7      2.00746e+6 
        12818.1      1.99245e+6 
        12828.4       1.9993e+6 
        12838.7      2.00221e+6 
        12849.1      2.00298e+6 
        12859.4      2.00207e+6 
        12877.5      1.99813e+6 
        12898.2      1.99187e+6 
        12939.5      1.97736e+6 
        13022.2      1.94663e+6 
        13104.9      1.91583e+6 
        13187.6      1.88544e+6 
        13232.3      1.86923e+6 
        13270.3      1.85554e+6 
        13308.4      1.84196e+6 
        13384.4      1.81645e+6 
        13460.4       1.7913e+6 
        13536.5      1.76651e+6 
        13612.5      1.74208e+6 
        13688.6      1.71804e+6 
        13764.6      1.69432e+6 
        13840.7      1.67096e+6 
        13916.7      1.64794e+6 
        13992.8      1.62527e+6 
        14068.8      1.60293e+6 
        14144.9      1.58094e+6 
        14220.9      1.55927e+6 
        14261.9      1.54772e+6 
          14297      1.53792e+6 
        14332.1      1.52818e+6 
        14346.8      1.52422e+6 
        14402.2      1.50943e+6 
        14457.6       1.4948e+6 
        14513.1       1.4804e+6 
        14553.7      1.46993e+6 
        14568.5      1.46615e+6 
        14581.2       1.4629e+6 
        14597.2      1.45887e+6 
        14613.2      1.45488e+6 
        14645.2      1.44693e+6 
        14709.2      1.43115e+6 
        14773.2      1.41555e+6 
        14837.1      1.40012e+6 
        14901.1      1.38487e+6 
        14965.1      1.36979e+6 
        15029.1      1.35489e+6 
        15093.1      1.34016e+6 
        15157.1      1.32559e+6 
