# Koester WD models
# teff = 7750 K (value for the effective temperature for the model. Temperatures are given in K)
# logg = 9 log(cm/s2) (value for Log(G) for the model.)
#
# column 1: WAVELENGTH (ANGSTROM), Wavelength in Angstrom
# column 2: FLUX (ERG/CM2/S/A), Flux in erg/cm2/s/A
         899.23         8.12158 
        909.241         10.3832 
        919.251         17.0496 
        929.261          28.143 
        939.271         57.6077 
         949.28         27.7868 
        959.289         120.059 
        969.297         127.242 
        979.305          196.87 
        989.312         269.523 
        999.319         346.892 
        1009.33         415.718 
        1019.33         387.767 
        1029.34         411.225 
        1039.34         731.426 
        1049.35         928.215 
        1059.36         1098.67 
        1069.36         1310.01 
        1079.36         1528.01 
        1089.37         1775.96 
        1099.37         2047.69 
        1109.38         2328.78 
        1119.38         2689.12 
        1129.38         3063.94 
        1139.39         3414.79 
        1149.39          3702.3 
        1159.39         3822.85 
        1169.39         3769.88 
         1179.4         3585.56 
         1189.4         3691.87 
         1199.4         3966.07 
         1209.4         3749.74 
        1219.41         3973.74 
        1229.41         6159.38 
        1239.41          7328.9 
        1249.41         8335.43 
        1259.41         9522.23 
        1269.41         11134.7 
        1279.42         13072.9 
        1289.42         14919.1 
        1299.42         16868.6 
        1309.42         18893.1 
        1319.42           20926 
        1329.42         23343.5 
        1339.42         25731.2 
        1349.42         28263.7 
        1359.42         31182.5 
        1369.42         34183.4 
        1379.42         37144.9 
        1389.42         40505.2 
        1399.42         44482.1 
        1409.42         48360.1 
        1419.42         51886.2 
        1429.42         55763.3 
        1439.42         60542.6 
        1451.92         67702.9 
        1464.42         73989.5 
        1476.35           78886 
        1489.42         85674.7 
        1501.92         93476.2 
        1514.42          104274 
        1529.42          116335 
        1541.92          125490 
        1554.42          130184 
        1566.72          136869 
        1579.41          145028 
        1594.41          155874 
        1604.41          165635 
        1616.91          182691 
        1629.41          206885 
        1641.91          239200 
        1654.41          281754 
        1665.56          331158 
        1676.33          388942 
         1687.1          465992 
        1698.05          589071 
        1708.62          755732 
         1719.4          957262 
         1734.4      1.27019e+6 
        1746.89       1.5191e+6 
        1758.14       1.7086e+6 
        1769.39       1.8691e+6 
        1780.64      2.04364e+6 
        1791.89       2.3027e+6 
        1804.39      2.53091e+6 
        1824.38        2.915e+6 
        1834.77      3.12803e+6 
        1846.32      3.36908e+6 
        1856.32      3.68251e+6 
        1866.33      3.95696e+6 
        1877.77      4.24322e+6 
        1893.03      4.65044e+6 
        1908.28       5.0808e+6 
        1919.37      5.40866e+6 
        1929.76      5.71123e+6 
        1939.82      6.25859e+6 
        1949.88      6.71908e+6 
         1960.7      7.06243e+6 
        1974.38      7.51145e+6 
        1997.55      8.30191e+6 
        2007.68      8.66103e+6 
        2017.81      9.02909e+6 
        2027.94      9.60815e+6 
        2038.08      1.00108e+7 
        2053.27      1.05751e+7 
        2067.03      1.10966e+7 
        2080.79      1.16362e+7 
        2094.55      1.21857e+7 
         2105.4      1.26255e+7 
        2116.25       1.3071e+7 
        2127.11      1.35181e+7 
        2137.96      1.41504e+7 
        2148.81      1.46157e+7 
        2159.66      1.50525e+7 
        2170.89      1.54963e+7 
        2189.45      1.62192e+7 
        2213.69      1.71782e+7 
        2227.77      1.77102e+7 
        2245.84      1.83877e+7 
        2257.14      1.88174e+7 
        2268.43      1.94906e+7 
        2286.51      2.02833e+7 
        2304.58      2.10692e+7 
        2330.24      2.21319e+7 
        2347.36      2.28331e+7 
        2362.35      2.34468e+7 
        2375.43      2.39736e+7 
        2392.35      2.46481e+7 
        2409.27       2.5329e+7 
        2430.05      2.62841e+7 
        2443.12      2.67745e+7 
        2456.19      2.72567e+7 
        2466.76      2.76668e+7 
        2488.39      2.84664e+7 
        2510.01      2.92728e+7 
        2531.64      2.99828e+7 
         2547.3      3.04822e+7 
        2559.23      3.08542e+7 
        2571.17      3.12432e+7 
        2595.04      3.19999e+7 
        2627.89      3.30744e+7 
        2642.78      3.34869e+7 
        2657.67      3.38893e+7 
        2678.36      3.43549e+7 
        2717.24      3.51733e+7 
        2756.11      3.59222e+7 
        2794.98      3.65945e+7 
        2813.16       3.6887e+7 
        2833.85      3.72093e+7 
        2854.55      3.75229e+7 
        2895.93      3.80337e+7 
        2921.65      3.83208e+7 
        2937.32      3.84848e+7 
        2952.98      3.86406e+7 
        2984.31      3.89033e+7 
        3042.53      3.93123e+7 
        3060.31      3.94182e+7 
         3077.5      3.95121e+7 
        3113.68      3.96874e+7 
        3149.86      3.98272e+7 
        3196.14      3.99413e+7 
        3222.22      3.99856e+7 
        3248.29       4.0016e+7 
        3300.45      3.99928e+7 
        3346.73      3.99325e+7 
        3433.42      3.97245e+7 
        3445.17      3.96881e+7 
        3456.92      3.96488e+7 
        3480.41      3.95652e+7 
        3511.22      3.94421e+7 
        3527.41      3.93726e+7 
         3543.6      3.93001e+7 
        3560.69      3.92196e+7 
        3575.99      3.91449e+7 
        3591.28      3.90676e+7 
        3604.78      3.89963e+7 
        3621.87      3.89045e+7 
        3635.88      3.88276e+7 
        3647.12      3.87622e+7 
        3658.96      3.86947e+7 
        3671.11      3.86227e+7 
        3682.58      3.85546e+7 
         3693.5      3.84889e+7 
        3703.57      3.84258e+7 
        3713.83      3.83636e+7 
        3724.38      3.82976e+7 
        3734.43      3.82121e+7 
        3744.62       3.8171e+7 
        3754.84      3.81063e+7 
        3765.07       3.8039e+7 
         3775.5       3.7974e+7 
        3786.22      3.79165e+7 
        3796.45      3.76862e+7 
        3807.84      3.78006e+7 
        3818.92      3.77428e+7 
        3830.45      3.75285e+7 
        3840.76      3.75059e+7 
        3851.98      3.76382e+7 
        3862.01       3.7614e+7 
        3872.59      3.74625e+7 
         3884.4      3.67551e+7 
        3895.31      3.68663e+7 
        3905.49      3.73941e+7 
        3918.89      3.75684e+7 
        3929.56      3.75518e+7 
        3940.04      3.74205e+7 
        3950.65      3.70475e+7 
        3962.28      3.57912e+7 
        3972.45      3.35563e+7 
        3984.18      3.64378e+7 
        3996.36        3.716e+7 
        4008.87      3.73614e+7 
        4023.86      3.73796e+7 
         4035.9      3.73256e+7 
        4048.86      3.72087e+7 
        4063.85      3.69219e+7 
        4075.42      3.64249e+7 
        4085.65      3.54007e+7 
        4096.17      3.21724e+7 
        4106.54      3.11791e+7 
        4116.69      3.48026e+7 
        4128.84      3.60749e+7 
        4143.83      3.65088e+7 
        4158.83      3.65813e+7 
        4173.82      3.65374e+7 
        4188.82      3.64528e+7 
        4203.81      3.63498e+7 
        4216.52      3.62524e+7 
        4228.81      3.61506e+7 
        4243.81      3.60149e+7 
         4258.8      3.58575e+7 
         4273.8      3.56596e+7 
        4288.79      3.53699e+7 
        4303.79      3.48667e+7 
        4314.07      3.41903e+7 
        4324.82      3.25918e+7 
        4334.98      2.78954e+7 
        4345.13      2.64358e+7 
        4356.08      3.21137e+7 
        4368.77      3.38221e+7 
        4383.77      3.43885e+7 
        4398.76      3.45226e+7 
        4413.76      3.45104e+7 
        4428.76      3.44337e+7 
        4443.75      3.43285e+7 
        4458.75      3.42104e+7 
        4473.74      3.40853e+7 
        4488.74      3.39565e+7 
        4503.74      3.38359e+7 
        4514.12      3.37438e+7 
        4527.19       3.3627e+7 
        4538.73       3.3523e+7 
        4553.72       3.3387e+7 
        4568.72        3.325e+7 
        4583.72      3.31127e+7 
        4596.53      3.29946e+7 
        4608.71      3.28824e+7 
         4623.7      3.27429e+7 
         4638.7      3.26028e+7 
         4653.7      3.24618e+7 
        4668.69      3.23194e+7 
        4683.69      3.21756e+7 
        4698.68      3.20292e+7 
        4713.68      3.18796e+7 
        4724.83      3.17653e+7 
        4738.67      3.16179e+7 
        4753.67      3.14486e+7 
        4768.67      3.12616e+7 
        4783.66      3.10431e+7 
        4798.66      3.07616e+7 
        4813.65       3.0341e+7 
        4828.65       2.9567e+7 
        4840.48      2.82276e+7 
        4850.99      2.51749e+7 
        4861.03       1.2554e+7 
        4871.36      2.45737e+7 
        4882.23      2.77885e+7 
        4892.33      2.88706e+7 
        4903.18      2.93668e+7 
        4913.63       2.9571e+7 
        4925.16      2.96562e+7 
        4938.62      2.96603e+7 
        4953.62      2.96052e+7 
        4968.61      2.95184e+7 
        4983.61      2.94146e+7 
         4998.6      2.93014e+7 
         5013.6       2.9182e+7 
         5028.6      2.90589e+7 
        5043.59      2.89334e+7 
        5058.59      2.88066e+7 
        5073.58      2.86787e+7 
        5088.58      2.85503e+7 
        5103.58      2.84217e+7 
        5118.57      2.82929e+7 
        5133.57      2.81643e+7 
        5148.56      2.80357e+7 
        5163.56      2.79073e+7 
        5178.56      2.77792e+7 
        5193.55      2.76513e+7 
        5208.55      2.75237e+7 
        5223.54      2.73964e+7 
        5238.54      2.72695e+7 
        5253.54      2.71429e+7 
        5268.53      2.70168e+7 
        5283.53       2.6891e+7 
        5298.52      2.67656e+7 
        5313.52      2.66407e+7 
        5328.52      2.65161e+7 
        5343.51       2.6392e+7 
        5358.51      2.62683e+7 
         5373.5      2.61474e+7 
         5388.5      2.60244e+7 
         5403.5      2.59017e+7 
        5418.49      2.57795e+7 
        5433.49      2.56578e+7 
        5448.48      2.55366e+7 
        5463.48      2.54158e+7 
        5478.48      2.52955e+7 
        5493.47      2.51757e+7 
        5508.47      2.50563e+7 
        5523.46      2.49375e+7 
        5538.46      2.48191e+7 
        5553.46      2.47012e+7 
        5568.45      2.45837e+7 
        5583.45      2.44668e+7 
        5598.44      2.43503e+7 
        5613.44      2.42343e+7 
        5628.44      2.41188e+7 
        5643.43      2.40037e+7 
        5658.43      2.38892e+7 
        5673.42      2.37839e+7 
         5686.2      2.36869e+7 
        5698.42      2.35945e+7 
        5708.88      2.35156e+7 
        5723.41      2.34065e+7 
        5738.41      2.32944e+7 
         5753.4      2.31827e+7 
         5768.4      2.30618e+7 
        5783.39      2.29509e+7 
        5798.39      2.28404e+7 
        5813.39      2.27304e+7 
        5828.38      2.26209e+7 
        5843.38      2.25118e+7 
        5858.37      2.24033e+7 
        5873.37      2.22952e+7 
        5888.37      2.21875e+7 
        5903.36      2.20803e+7 
        5918.36      2.19736e+7 
        5933.35      2.18673e+7 
        5948.35      2.17615e+7 
        5963.35      2.16561e+7 
        5978.34      2.15511e+7 
        5993.34      2.14466e+7 
        6008.33      2.13425e+7 
        6023.33      2.12387e+7 
        6038.32      2.11354e+7 
        6053.32      2.10326e+7 
        6068.32        2.093e+7 
        6083.31      2.08279e+7 
        6098.31      2.07262e+7 
        6113.31      2.06248e+7 
         6128.3      2.05237e+7 
         6143.3       2.0423e+7 
        6158.29      2.03225e+7 
        6173.29      2.02222e+7 
        6188.28      2.01221e+7 
        6203.28      2.00222e+7 
        6218.28      1.99225e+7 
        6233.27      1.98228e+7 
        6244.38       1.9749e+7 
        6256.04      1.96714e+7 
        6266.59      1.96012e+7 
        6278.26      1.95234e+7 
        6290.52      1.94413e+7 
        6302.31      1.93621e+7 
        6312.59      1.92927e+7 
        6323.25      1.92203e+7 
        6338.24      1.91174e+7 
        6353.24      1.90129e+7 
        6368.24      1.89061e+7 
        6383.23      1.87962e+7 
        6398.23       1.8682e+7 
        6413.22      1.85615e+7 
        6428.22      1.84319e+7 
        6443.22      1.82888e+7 
        6458.21      1.81249e+7 
        6473.21      1.79281e+7 
         6488.2      1.76765e+7 
         6503.2      1.73265e+7 
         6518.2      1.67857e+7 
        6530.43      1.60544e+7 
        6541.53      1.49081e+7 
        6551.59      1.29653e+7 
        6561.85       9.4343e+6 
        6572.47      1.24439e+7 
        6583.18      1.45524e+7 
        6593.31      1.55751e+7 
        6603.34      1.61511e+7 
        6613.66      1.64998e+7 
        6623.98      1.67095e+7 
         6634.3      1.68351e+7 
        6644.62      1.69081e+7 
        6654.94      1.69461e+7 
        6665.26      1.69605e+7 
         6685.9      1.69443e+7 
        6701.62      1.69069e+7 
        6721.34      1.68422e+7 
         6736.2      1.67851e+7 
        6780.49      1.65916e+7 
        6824.78      1.63811e+7 
        6913.35      1.59481e+7 
        7001.93      1.55152e+7 
        7071.86      1.51788e+7 
         7090.5      1.50901e+7 
        7109.15      1.50018e+7 
        7146.44       1.4828e+7 
        7221.02      1.44859e+7 
         7295.6      1.41516e+7 
        7346.84      1.39265e+7 
        7370.18      1.38288e+7 
        7393.51      1.37279e+7 
        7440.19      1.35301e+7 
        7533.55      1.31434e+7 
        7575.92      1.29719e+7 
         7626.9      1.27686e+7 
        7677.88      1.25688e+7 
        7728.86      1.23737e+7 
        7779.84      1.21819e+7 
        7830.82      1.19933e+7 
         7881.8      1.18079e+7 
        7903.32      1.17306e+7 
        7932.78      1.16256e+7 
        7962.25      1.15217e+7 
        8021.18      1.13178e+7 
        8077.68      1.11261e+7 
        8097.18      1.10609e+7 
        8108.49      1.10233e+7 
        8155.67      1.08679e+7 
        8200.85      1.07214e+7 
        8216.85      1.06703e+7 
        8232.84      1.06194e+7 
        8264.83      1.05184e+7 
        8289.72      1.04406e+7 
        8328.82      1.03197e+7 
        8343.44      1.02748e+7 
        8367.92      1.02003e+7 
        8388.68      1.01377e+7 
        8408.65       1.0078e+7 
        8432.02      1.00086e+7 
        8467.25      9.90494e+6 
        8502.48      9.80249e+6 
        8516.58      9.76187e+6 
        8530.98      9.72053e+6 
        8545.38      9.67956e+6 
        8574.18      9.59841e+6 
        8598.39      9.53059e+6 
         8628.6      9.44702e+6 
        8646.81      9.39694e+6 
        8665.01      9.34687e+6 
        8685.59      9.29132e+6 
        8701.43      9.24857e+6 
        8750.47      9.11671e+6 
        8767.92      9.07135e+6 
        8815.35      8.94738e+6 
        8862.78      8.82426e+6 
        8900.38      8.73168e+6 
        8957.65      8.58962e+6 
        9014.91       8.4446e+6 
        9044.62       8.3785e+6 
        9072.17      8.31335e+6 
        9099.72      8.24844e+6 
        9154.81      8.12124e+6 
         9190.8      8.03839e+6 
         9209.9      7.99319e+6 
        9229.01      7.93824e+6 
        9267.22      7.86771e+6 
        9305.43      7.78543e+6 
        9379.63      7.62625e+6 
        9397.45      7.58855e+6 
        9415.28      7.55107e+6 
        9450.94      7.47611e+6 
        9498.52      7.37486e+6 
        9522.24      7.32051e+6 
         9534.1       7.2879e+6 
        9545.97      7.23826e+6 
        9557.83      7.23936e+6 
        9569.68      7.22431e+6 
        9581.55      7.20499e+6 
        9605.27      7.16267e+6 
        9636.96      7.10358e+6 
        9652.71      7.07396e+6 
        9668.45       7.0442e+6 
        9699.94      6.98514e+6 
        9762.91      6.86777e+6 
        9825.88      6.75179e+6 
        9888.86      6.63683e+6 
        9950.84      6.52191e+6 
        9966.69      6.49176e+6 
        9979.12       6.4675e+6 
        9996.68      6.43172e+6 
        10014.2      6.39254e+6 
        10031.8      6.34401e+6 
          10045      6.27791e+6 
        10055.9      6.27065e+6 
        10066.9       6.2818e+6 
        10080.1      6.27451e+6 
        10097.7      6.25648e+6 
        10132.8      6.21043e+6 
        10167.9      6.15894e+6 
          10203      6.10518e+6 
        10237.2      6.05222e+6 
        10305.5      5.94782e+6 
        10373.9      5.84459e+6 
        10442.2      5.74258e+6 
        10510.6      5.64277e+6 
        10578.9      5.54491e+6 
        10647.3      5.44824e+6 
        10715.6      5.35227e+6 
          10784      5.25488e+6 
        10818.2      5.20377e+6 
        10852.3       5.1481e+6 
        10869.4       5.1169e+6 
        10886.5      5.08099e+6 
        10903.3      5.03723e+6 
        10920.7      4.96918e+6 
        10933.7      4.85106e+6 
        10944.1       4.8514e+6 
        10954.9      4.91059e+6 
        10972.3      4.93742e+6 
        10989.7      4.94179e+6 
        11007.1      4.93642e+6 
        11041.9      4.91138e+6 
        11076.7      4.87748e+6 
        11146.2      4.80101e+6 
        11170.7      4.77308e+6 
        11215.8      4.72128e+6 
        11260.9      4.66944e+6 
        11351.1      4.56979e+6 
        11441.3      4.47269e+6 
        11531.5      4.37718e+6 
        11621.7      4.28403e+6 
        11711.9      4.19321e+6 
        11802.1      4.10462e+6 
        11892.3      4.01822e+6 
        11982.5      3.93397e+6 
        12072.7      3.85115e+6 
        12162.9      3.77076e+6 
        12221.6      3.71943e+6 
        12253.1      3.69225e+6 
        12284.6      3.66526e+6 
        12347.6      3.61346e+6 
        12410.6      3.56213e+6 
        12473.6      3.51104e+6 
        12536.6      3.45962e+6 
        12599.6      3.40643e+6 
        12631.1      3.37825e+6 
        12662.6       3.3479e+6 
        12694.1      3.31331e+6 
        12709.9      3.29365e+6 
        12725.6      3.27062e+6 
        12741.4      3.24391e+6 
        12757.1      3.20999e+6 
        12772.9       3.1655e+6 
        12788.6      3.10028e+6 
        12800.4       3.0221e+6 
        12812.2      2.86384e+6 
        12822.8      2.83332e+6 
          12836      2.97732e+6 
        12847.4      3.03169e+6 
        12862.5      3.07841e+6 
        12877.6       3.1056e+6 
        12892.7      3.12213e+6 
        12907.8      3.12967e+6 
        12922.9      3.13287e+6 
        12953.2      3.12923e+6 
        12983.4      3.11888e+6 
        13013.6      3.10463e+6 
        13074.1      3.07113e+6 
        13134.6      3.03444e+6 
          13195       2.9968e+6 
        13255.5      2.95896e+6 
        13308.4        2.926e+6 
        13361.2      2.89431e+6 
          13414      2.86287e+6 
        13466.9      2.83175e+6 
        13519.7      2.80097e+6 
        13572.6      2.77053e+6 
        13625.4      2.74095e+6 
        13678.3      2.71115e+6 
        13731.1      2.68173e+6 
          13784      2.65266e+6 
        13836.8      2.62396e+6 
        13889.7      2.59562e+6 
        13942.5      2.56762e+6 
        13995.4      2.53997e+6 
        14048.2      2.51264e+6 
          14101      2.48562e+6 
