# Koester WD models
# teff = 7500 K (value for the effective temperature for the model. Temperatures are given in K)
# logg = 8 log(cm/s2) (value for Log(G) for the model.)
#
# column 1: WAVELENGTH (ANGSTROM), Wavelength in Angstrom
# column 2: FLUX (ERG/CM2/S/A), Flux in erg/cm2/s/A
         899.23         2.45896 
        909.241         3.18523 
        919.251         6.95043 
        929.261          10.846 
        939.271         26.9516 
         949.28          9.2087 
        959.289         61.1822 
        969.297         61.7873 
        979.305         96.3944 
        989.312         129.474 
        999.319         164.264 
        1009.33         198.585 
        1019.33         193.387 
        1029.34         207.559 
        1039.34         357.658 
        1049.35         454.365 
        1059.36         542.814 
        1069.36         653.907 
        1079.36         769.907 
        1089.37         904.395 
        1099.37         1051.94 
        1109.38         1206.89 
        1119.38         1403.86 
        1129.38          1611.6 
        1139.39         1810.44 
        1149.39         1983.82 
        1159.39         2077.81 
        1169.39         2092.32 
         1179.4         2012.42 
         1189.4         2050.39 
         1199.4         2185.01 
         1209.4          1950.2 
        1219.41         2026.42 
        1229.41         3507.71 
        1239.41         4226.89 
        1249.41          4837.3 
        1259.41         5549.09 
        1269.41         6511.14 
        1279.42         7641.42 
        1289.42         8725.74 
        1299.42         9886.43 
        1309.42         11094.8 
        1319.42         12325.4 
        1329.42         13795.1 
        1339.42         15242.6 
        1349.42         16801.3 
        1359.42         18599.6 
        1369.42         20454.3 
        1379.42         22307.3 
        1389.42         24396.4 
        1399.42         26894.5 
        1409.42         29367.3 
        1419.42         31625.5 
        1429.42         34084.1 
        1439.42         37095.6 
        1454.42         42494.4 
        1464.42         45803.8 
        1476.35         49090.2 
        1487.11         52714.7 
        1499.42         57502.5 
        1509.42         62533.1 
        1524.42         70838.5 
        1536.92         77374.6 
        1549.42         81907.9 
        1559.42         85044.5 
        1570.19           89678 
        1584.41         96249.6 
        1599.41          104689 
        1611.91          114401 
        1624.41          128077 
        1636.91          146465 
        1649.41          171023 
        1661.91          205811 
        1673.25          248922 
         1683.9          310183 
         1694.4          428227 
         1705.4          645871 
         1716.9          943141 
         1729.4      1.31261e+6 
         1741.9      1.67676e+6 
        1753.14      1.93563e+6 
        1764.39      2.11969e+6 
        1775.55      2.30164e+6 
        1785.64      2.55937e+6 
        1796.89      2.82436e+6 
           1814      3.16302e+6 
        1824.38      3.37831e+6 
        1834.77      3.60061e+6 
        1845.15      3.82778e+6 
        1855.53      4.18982e+6 
        1865.58      4.51202e+6 
        1883.83      4.97729e+6 
        1902.09      5.47426e+6 
        1915.05      5.84481e+6 
        1925.85      6.15846e+6 
        1936.11      6.59907e+6 
        1946.24      7.09918e+6 
        1956.36      7.60501e+6 
        1968.59      7.99124e+6 
        1993.34      8.79464e+6 
        2005.58      9.20345e+6 
        2017.81      9.61946e+6 
        2028.52      1.02496e+7 
        2039.22      1.06231e+7 
        2052.99      1.10742e+7 
        2063.41       1.1418e+7 
        2077.91      1.19053e+7 
        2092.41      1.23972e+7 
        2104.33      1.28041e+7 
        2116.25      1.32129e+7 
        2128.17      1.36214e+7 
        2140.09      1.42488e+7 
        2152.01      1.46354e+7 
        2162.39      1.49716e+7 
        2174.74      1.53682e+7 
         2187.1      1.57639e+7 
        2208.94      1.64626e+7 
        2220.45      1.68263e+7 
        2231.95      1.71865e+7 
           2246      1.76239e+7 
         2257.2      1.79713e+7 
        2268.39       1.8516e+7 
         2286.3      1.90758e+7 
        2299.59      1.94738e+7 
        2313.13      1.98771e+7 
        2330.97      2.03703e+7 
        2362.35      2.12253e+7 
        2409.27      2.24476e+7 
        2456.14      2.36756e+7 
        2469.49      2.39806e+7 
        2481.09      2.42387e+7 
        2498.55      2.46472e+7 
        2510.01       2.4894e+7 
        2521.47        2.513e+7 
        2544.39      2.55923e+7 
        2559.23      2.58842e+7 
        2588.91      2.64636e+7 
        2638.89      2.74369e+7 
        2657.67       2.7743e+7 
         2671.9      2.79536e+7 
           2714      2.85481e+7 
        2756.11      2.90989e+7 
        2798.21      2.95994e+7 
        2826.09      2.99078e+7 
        2840.32      3.00724e+7 
        2854.55      3.02241e+7 
           2883      3.04759e+7 
        2926.83      3.08301e+7 
        2939.91      3.09281e+7 
        2952.98      3.10229e+7 
        2979.14      3.11943e+7 
        3011.48      3.13878e+7 
        3031.45      3.14973e+7 
        3051.42      3.15997e+7 
        3091.36      3.17797e+7 
        3149.86      3.19946e+7 
        3168.41      3.20417e+7 
        3208.35      3.21256e+7 
        3248.29      3.21859e+7 
        3309.63      3.22217e+7 
        3322.49       3.2223e+7 
        3346.73      3.22192e+7 
        3383.83      3.21988e+7 
        3445.17      3.21297e+7 
         3469.4      3.20898e+7 
        3495.92      3.20386e+7 
         3506.5      3.20144e+7 
         3543.6      3.19214e+7 
        3591.28      3.17819e+7 
        3635.88       3.1633e+7 
        3647.12      3.15915e+7 
        3658.96      3.15491e+7 
        3671.11      3.15045e+7 
        3682.58      3.14612e+7 
         3693.5      3.14216e+7 
        3703.57      3.13716e+7 
        3713.83      3.13453e+7 
        3724.38       3.1311e+7 
        3734.43      3.11196e+7 
        3744.62      3.12591e+7 
        3754.84      3.12407e+7 
        3765.07      3.12014e+7 
        3775.56      3.11993e+7 
        3786.57      3.12552e+7 
        3796.68      3.02997e+7 
        3808.57      3.13505e+7 
        3818.75       3.1421e+7 
        3828.91      3.08178e+7 
        3839.18      3.02874e+7 
        3850.38      3.15724e+7 
        3862.01      3.17694e+7 
        3872.59      3.14806e+7 
        3883.67      2.97025e+7 
        3893.69      2.92473e+7 
        3903.89      3.14071e+7 
        3918.89      3.20223e+7 
        3929.56      3.20631e+7 
        3940.04      3.19443e+7 
        3950.65      3.14662e+7 
        3961.37      2.96428e+7 
        3971.45      2.32261e+7 
        3981.87      3.03162e+7 
        3992.03      3.15284e+7 
        4003.87      3.19154e+7 
        4015.58      3.19899e+7 
        4028.86      3.19745e+7 
        4043.86      3.19032e+7 
        4058.85      3.17467e+7 
        4073.85      3.13257e+7 
        4085.65      3.02816e+7 
        4095.76       2.6721e+7 
        4105.79      2.45754e+7 
        4116.66       2.9878e+7 
        4126.69      3.09062e+7 
        4138.83      3.12648e+7 
        4153.83      3.13499e+7 
        4168.82      3.13143e+7 
        4183.82      3.12449e+7 
        4198.82       3.1163e+7 
        4213.81      3.10735e+7 
        4224.95      3.10033e+7 
        4238.81      3.09114e+7 
         4253.8      3.08029e+7 
         4268.8      3.06758e+7 
        4283.79      3.05091e+7 
        4298.79      3.02507e+7 
        4313.79      2.96861e+7 
        4324.82      2.84675e+7 
        4334.94      2.40924e+7 
        4345.11      2.28582e+7 
        4356.08       2.8231e+7 
        4368.77      2.94119e+7 
        4383.77      2.97182e+7 
        4398.76      2.97567e+7 
        4413.76       2.9715e+7 
        4428.76      2.96383e+7 
        4443.75      2.95464e+7 
        4458.75      2.94483e+7 
        4473.74      2.93469e+7 
        4488.74      2.92438e+7 
        4503.74      2.91721e+7 
        4514.12      2.90982e+7 
        4527.19      2.90048e+7 
        4538.73      2.89219e+7 
        4553.72      2.88138e+7 
        4568.72      2.87051e+7 
        4583.72      2.85961e+7 
        4596.53      2.85026e+7 
        4608.71      2.84137e+7 
         4623.7      2.83036e+7 
         4638.7      2.81931e+7 
         4653.7      2.80821e+7 
        4668.69      2.79706e+7 
        4683.69      2.78583e+7 
        4698.68      2.77449e+7 
        4713.68      2.76301e+7 
        4724.83      2.75432e+7 
        4738.67      2.74327e+7 
        4753.67      2.73083e+7 
        4768.67      2.71753e+7 
        4783.66      2.70273e+7 
        4798.66      2.68468e+7 
        4813.65      2.65911e+7 
        4828.65      2.61224e+7 
        4839.16      2.53951e+7 
        4849.43      2.35158e+7 
         4859.6       1.4221e+7 
        4869.72       2.1871e+7 
        4880.32      2.47503e+7 
        4891.13      2.55652e+7 
        4903.63      2.58658e+7 
        4915.55       2.5944e+7 
        4928.62      2.59406e+7 
        4943.62      2.58862e+7 
        4958.61      2.58073e+7 
        4973.61      2.57167e+7 
        4988.61      2.56194e+7 
         5003.6      2.55184e+7 
         5018.6       2.5415e+7 
         5033.6      2.53102e+7 
        5048.59      2.52046e+7 
        5063.59      2.50985e+7 
        5078.58      2.49922e+7 
        5093.58      2.48857e+7 
        5108.57      2.47793e+7 
        5123.57      2.46729e+7 
        5138.57      2.45667e+7 
        5153.56      2.44605e+7 
        5168.56      2.43546e+7 
        5183.56      2.42488e+7 
        5198.55      2.41432e+7 
        5213.55      2.40379e+7 
        5228.54      2.39328e+7 
        5243.54      2.38279e+7 
        5258.53      2.37233e+7 
        5273.53      2.36189e+7 
        5288.53      2.35149e+7 
        5303.52      2.34111e+7 
        5318.52      2.33076e+7 
        5333.52      2.32044e+7 
        5348.51      2.31015e+7 
        5363.51      2.29999e+7 
         5378.5      2.28975e+7 
         5393.5      2.27954e+7 
        5408.49      2.26936e+7 
        5423.49      2.25922e+7 
        5438.49       2.2491e+7 
        5453.48      2.23902e+7 
        5468.48      2.22897e+7 
        5483.48      2.21895e+7 
        5498.47      2.20897e+7 
        5513.47      2.19902e+7 
        5528.46      2.18911e+7 
        5543.46      2.17923e+7 
        5558.45      2.16938e+7 
        5573.45      2.15957e+7 
        5588.45      2.14979e+7 
        5603.44      2.14005e+7 
        5618.44      2.13035e+7 
        5633.43      2.12067e+7 
        5648.43      2.11104e+7 
        5663.43      2.10144e+7 
        5673.98      2.09478e+7 
         5686.2        2.087e+7 
        5698.42      2.07925e+7 
        5708.88      2.07262e+7 
        5723.41      2.06346e+7 
        5738.41      2.05404e+7 
         5753.4      2.04466e+7 
         5768.4      2.03494e+7 
        5783.39      2.02562e+7 
        5798.39      2.01633e+7 
        5813.39      2.00708e+7 
        5828.38      1.99787e+7 
        5843.38      1.98869e+7 
        5858.37      1.97955e+7 
        5873.37      1.97044e+7 
        5888.37      1.96137e+7 
        5903.36      1.95234e+7 
        5918.36      1.94334e+7 
        5933.35      1.93438e+7 
        5948.35      1.92545e+7 
        5963.35      1.91656e+7 
        5978.34      1.90771e+7 
        5993.34      1.89889e+7 
        6008.33       1.8901e+7 
        6023.33      1.88134e+7 
        6038.32      1.87262e+7 
        6053.32      1.86393e+7 
        6068.32      1.85527e+7 
        6083.31      1.84665e+7 
        6098.31      1.83806e+7 
        6113.31      1.82951e+7 
         6128.3      1.82099e+7 
         6143.3       1.8125e+7 
        6158.29      1.80403e+7 
        6173.29       1.7956e+7 
        6188.28       1.7872e+7 
        6203.28      1.77882e+7 
        6218.28      1.77046e+7 
        6233.27      1.76213e+7 
        6244.38      1.75596e+7 
        6256.04       1.7495e+7 
        6266.59      1.74367e+7 
        6278.26      1.73721e+7 
        6290.52      1.73043e+7 
        6302.31      1.72391e+7 
        6312.59      1.71822e+7 
        6323.25      1.71231e+7 
        6338.24      1.70397e+7 
        6353.24      1.69558e+7 
        6368.24      1.68711e+7 
        6383.23      1.67852e+7 
        6398.23      1.66977e+7 
        6413.22      1.66075e+7 
        6428.22      1.65133e+7 
        6443.22      1.64129e+7 
        6458.21      1.63028e+7 
        6473.21      1.61764e+7 
         6488.2      1.60213e+7 
         6503.2      1.58108e+7 
         6518.2      1.54814e+7 
        6532.67      1.48868e+7 
        6543.19      1.40173e+7 
        6553.26      1.21035e+7 
        6563.29      8.16933e+6 
        6573.47      1.23272e+7 
        6584.73      1.40753e+7 
        6595.59      1.47356e+7 
         6608.5      1.50898e+7 
        6618.82       1.5221e+7 
         6634.3      1.53024e+7 
        6644.62       1.5316e+7 
        6654.94      1.53111e+7 
        6665.26      1.52946e+7 
         6685.9      1.52397e+7 
        6711.48      1.51499e+7 
        6762.62       1.4942e+7 
        6802.75      1.47691e+7 
        6813.77      1.47211e+7 
        6824.78       1.4673e+7 
        6846.81      1.45772e+7 
        6890.86      1.43859e+7 
        6978.98      1.40068e+7 
        7025.03      1.38117e+7 
        7067.09      1.36355e+7 
        7109.15      1.34614e+7 
        7193.26      1.31223e+7 
        7277.38      1.27915e+7 
        7329.48      1.25907e+7 
         7361.5       1.2469e+7 
        7393.51      1.23497e+7 
        7457.55      1.21139e+7 
        7521.58      1.18828e+7 
        7585.61      1.16562e+7 
        7621.41      1.15315e+7 
        7649.65      1.14342e+7 
        7677.88      1.13377e+7 
        7734.35      1.11488e+7 
        7790.83      1.09633e+7 
         7847.3       1.0781e+7 
        7903.77      1.06019e+7 
        7958.24      1.04322e+7 
        7974.27      1.03831e+7 
         7990.3      1.03342e+7 
        8022.35      1.02372e+7 
        8082.55      1.00578e+7 
        8142.75      9.88229e+6 
        8200.85      9.71604e+6 
        8216.85      9.67092e+6 
        8232.84      9.62612e+6 
        8264.83      9.53712e+6 
        8289.72      9.46854e+6 
        8328.82      9.36185e+6 
        8343.44      9.32227e+6 
        8367.92      9.25645e+6 
        8388.68      9.20129e+6 
        8408.65      9.14857e+6 
        8432.02      9.08728e+6 
        8467.25      8.99564e+6 
        8502.48        8.905e+6 
        8516.58      8.86928e+6 
        8530.98      8.83271e+6 
        8545.38      8.79615e+6 
        8574.18      8.72511e+6 
        8598.39      8.66417e+6 
         8628.6      8.59156e+6 
        8646.81      8.54724e+6 
        8665.01      8.50058e+6 
        8685.59      8.45399e+6 
        8701.43      8.41626e+6 
        8750.47      8.29374e+6 
        8767.92      8.25893e+6 
        8815.35      8.14935e+6 
        8862.78      8.02752e+6 
        8900.38      7.95938e+6 
        8957.65      7.83375e+6 
        8986.28      7.76888e+6 
        9000.59      7.73369e+6 
        9011.33      7.69521e+6 
        9022.07      7.68082e+6 
         9032.8      7.66659e+6 
        9043.54      7.64683e+6 
        9054.28        7.626e+6 
        9065.01      7.60457e+6 
        9075.75      7.58293e+6 
        9094.73      7.54413e+6 
        9114.68      7.50322e+6 
        9134.64      7.46207e+6 
        9147.31      7.43565e+6 
        9174.54      7.37737e+6 
        9188.16      7.34674e+6 
        9201.78      7.31419e+6 
        9215.39      7.27627e+6 
         9225.6      7.22353e+6 
        9235.82      7.22039e+6 
        9247.73       7.2164e+6 
        9268.16      7.18762e+6 
        9295.39      7.14115e+6 
        9315.63      7.10459e+6 
        9349.85      7.04078e+6 
        9384.08      6.97625e+6 
        9452.54      6.84616e+6 
        9496.03      6.75615e+6 
        9508.51      6.72565e+6 
           9521       6.6893e+6 
        9533.48      6.63988e+6 
         9544.4      6.52678e+6 
        9556.89      6.58827e+6 
        9569.37      6.59703e+6 
         9588.1       6.5855e+6 
        9613.06       6.5538e+6 
        9638.03      6.51544e+6 
        9657.54      6.48387e+6 
        9668.45      6.46587e+6 
        9679.36       6.4478e+6 
        9701.17      6.41155e+6 
         9744.8      6.33898e+6 
        9832.06      6.19503e+6 
         9885.8      6.10707e+6 
        9919.31      6.05127e+6 
        9952.82      5.99315e+6 
        9986.33      5.92894e+6 
        10005.1      5.88458e+6 
        10019.8      5.83922e+6 
        10030.9      5.79083e+6 
          10042      5.70246e+6 
        10052.5      5.60831e+6 
        10068.5      5.72879e+6 
        10087.7      5.74842e+6 
        10100.5      5.74534e+6 
        10126.1       5.7236e+6 
        10151.7      5.69329e+6 
        10168.6      5.67149e+6 
        10202.9      5.62483e+6 
        10237.2      5.57699e+6 
        10305.8      5.48268e+6 
        10374.4       5.3894e+6 
        10443.1      5.29745e+6 
        10511.7      5.20732e+6 
        10580.3      5.11888e+6 
          10649      5.03173e+6 
        10717.6      4.94537e+6 
        10786.2      4.85788e+6 
        10820.5      4.81173e+6 
        10837.7      4.78678e+6 
        10854.9      4.75958e+6 
          10872      4.72781e+6 
        10889.2      4.68757e+6 
        10906.3      4.62747e+6 
        10919.2      4.55009e+6 
        10929.9      4.41617e+6 
          10940      4.15985e+6 
        10950.9       4.4413e+6 
        10961.3       4.5166e+6 
        10975.2      4.55789e+6 
        10996.1        4.574e+6 
          11010      4.57224e+6 
        11037.7       4.5555e+6 
        11065.5      4.53146e+6 
        11121.1      4.47608e+6 
        11176.7      4.41786e+6 
        11203.7      4.38946e+6 
        11232.3      4.35937e+6 
        11260.9      4.32937e+6 
        11318.1      4.27187e+6 
        11375.4      4.21511e+6 
        11432.6      4.15912e+6 
        11489.8      4.10415e+6 
          11547      4.04973e+6 
        11604.3      3.99617e+6 
        11661.5      3.94339e+6 
        11718.7       3.8914e+6 
          11776      3.84022e+6 
        11833.2       3.7898e+6 
        11890.4      3.74013e+6 
        11947.6      3.69121e+6 
        12004.9      3.64305e+6 
        12062.1      3.59533e+6 
        12119.3      3.54852e+6 
        12176.6      3.50244e+6 
        12233.8      3.45698e+6 
        12284.6      3.41714e+6 
        12335.5      3.37903e+6 
        12386.3      3.34127e+6 
        12437.1      3.30382e+6 
          12488      3.26657e+6 
        12538.8      3.22931e+6 
        12589.7      3.19148e+6 
        12640.5      3.15199e+6 
        12665.9      3.13062e+6 
        12691.4      3.10712e+6 
        12716.8      3.07939e+6 
        12729.5      3.06269e+6 
        12742.2      3.04304e+6 
        12754.9      3.01838e+6 
        12767.6      2.98611e+6 
        12780.3      2.93963e+6 
          12793      2.86559e+6 
        12805.7      2.71849e+6 
        12816.1      2.35253e+6 
        12826.8      2.60876e+6 
        12838.8      2.78317e+6 
        12853.2       2.8712e+6 
        12867.7      2.91232e+6 
        12886.9       2.9364e+6 
        12906.2      2.94431e+6 
        12925.4      2.94431e+6 
        12944.6      2.93987e+6 
        12963.9      2.93285e+6 
        13002.4      2.91491e+6 
        13079.3      2.87242e+6 
        13156.3      2.82757e+6 
        13233.2      2.78252e+6 
        13308.4      2.73922e+6 
        13383.5      2.69799e+6 
        13458.6      2.65734e+6 
