# Koester WD models
# teff = 7250 K (value for the effective temperature for the model. Temperatures are given in K)
# logg = 7.75 log(cm/s2) (value for Log(G) for the model.)
#
# column 1: WAVELENGTH (ANGSTROM), Wavelength in Angstrom
# column 2: FLUX (ERG/CM2/S/A), Flux in erg/cm2/s/A
         899.23         1.20755 
        909.241         1.57649 
        919.251         3.39477 
        929.261         5.12256 
        939.271         11.9404 
         949.28         4.68619 
        959.289         25.0201 
        969.297         28.2092 
        979.305         41.9789 
        989.312         55.8855 
        999.319         71.4737 
        1009.33         88.3639 
        1019.33         91.9378 
        1029.34         100.433 
        1039.34         165.881 
        1049.35         208.754 
        1059.36         251.085 
        1069.36         302.391 
        1079.36         358.607 
        1089.37         422.767 
        1099.37         495.297 
        1109.38         573.143 
        1119.38         671.003 
        1129.38         776.225 
        1139.39         881.192 
        1149.39         978.867 
        1159.39          1043.5 
        1169.39         1067.11 
         1179.4         1029.53 
         1189.4          1053.9 
         1199.4         1130.96 
         1209.4         1023.85 
        1219.41         1076.98 
        1229.41         1846.59 
        1239.41         2233.86 
        1249.41            2570 
        1259.41         2962.57 
        1269.41          3496.5 
        1279.42         4124.03 
        1289.42         4732.34 
        1299.42         5374.26 
        1309.42         6059.06 
        1319.42         6761.02 
        1329.42         7593.42 
        1339.42         8425.59 
        1349.42         9327.83 
        1359.42         10368.1 
        1369.42         11440.8 
        1379.42         12538.6 
        1389.42         13775.1 
        1399.42         15218.3 
        1409.42         16668.7 
        1419.42         18064.8 
        1429.42         19578.1 
        1439.42         21361.3 
        1454.42         24520.4 
        1464.42         26567.9 
        1476.35         28721.4 
        1487.11         30966.2 
        1499.42         33876.4 
        1509.42         36895.2 
        1524.42         41945.3 
        1536.92         46072.7 
        1549.42         49157.4 
        1559.42         51293.7 
        1570.19         54265.7 
        1584.41         58511.5 
        1599.41         63921.4 
        1611.91         70067.3 
        1624.41         78659.8 
        1636.91         90040.6 
        1649.41          104718 
        1661.91          124787 
        1673.25          148644 
         1684.4          181289 
        1695.17          239950 
        1705.92          342082 
        1716.76          479790 
         1729.4          676784 
         1741.9          874902 
        1753.14      1.01575e+6 
        1764.39      1.12033e+6 
        1775.55      1.22856e+6 
        1785.64        1.384e+6 
        1796.89      1.54442e+6 
        1814.38      1.75906e+6 
           1834      2.01937e+6 
        1846.32      2.19189e+6 
        1856.32      2.43241e+6 
        1866.33      2.63153e+6 
        1877.77      2.82245e+6 
        1893.03      3.09517e+6 
        1908.28       3.3856e+6 
        1919.37      3.60765e+6 
        1929.76      3.82442e+6 
        1939.82      4.28554e+6 
        1949.88      4.66341e+6 
         1960.7       4.9071e+6 
        1974.38        5.225e+6 
        1997.55      5.78556e+6 
        2007.68      6.04031e+6 
        2017.81      6.30251e+6 
        2027.94      6.75801e+6 
        2038.08      7.04442e+6 
        2057.07      7.52726e+6 
        2086.95      8.31046e+6 
         2101.6      8.70479e+6 
        2116.25      9.10459e+6 
        2127.24      9.40665e+6 
        2138.23      9.86868e+6 
        2149.22      1.01796e+7 
        2165.47      1.06108e+7 
        2183.33      1.10821e+7 
         2214.7      1.19177e+7 
           2227      1.22413e+7 
         2239.3      1.25649e+7 
        2251.61       1.2889e+7 
        2263.91       1.3297e+7 
        2276.22      1.37222e+7 
        2288.52      1.40421e+7 
        2300.83      1.43624e+7 
        2313.13      1.46821e+7 
        2337.75      1.52742e+7 
        2362.35      1.58616e+7 
        2409.27      1.69415e+7 
        2456.14      1.80324e+7 
        2469.49      1.83079e+7 
        2481.09       1.8542e+7 
        2498.55      1.89111e+7 
        2510.01      1.91382e+7 
        2521.47      1.93555e+7 
        2544.39      1.97834e+7 
        2559.23      2.00551e+7 
        2588.91      2.06006e+7 
        2638.89      2.15225e+7 
        2657.67      2.18175e+7 
         2671.9      2.20205e+7 
           2714      2.25991e+7 
        2756.11      2.31437e+7 
        2798.21      2.36476e+7 
        2826.09      2.39628e+7 
        2840.32      2.41302e+7 
        2854.55      2.42863e+7 
           2883      2.45525e+7 
        2926.83       2.4935e+7 
        2939.91      2.50427e+7 
        2952.98      2.51478e+7 
        2979.14      2.53413e+7 
        3011.48       2.5565e+7 
        3031.45      2.56947e+7 
        3051.42      2.58182e+7 
        3091.36      2.60441e+7 
        3149.86      2.63317e+7 
        3168.41      2.64036e+7 
        3208.35      2.65432e+7 
        3248.29      2.66621e+7 
        3309.63      2.67912e+7 
        3322.49      2.68126e+7 
        3346.73      2.68477e+7 
        3383.83      2.68874e+7 
        3445.17      2.69207e+7 
         3469.4      2.69223e+7 
        3495.92      2.69163e+7 
         3506.5      2.69106e+7 
         3543.6      2.68825e+7 
        3591.28      2.68275e+7 
        3635.88      2.67584e+7 
        3647.12      2.67372e+7 
        3658.96      2.67153e+7 
        3671.11      2.66913e+7 
        3682.58      2.66672e+7 
         3693.5      2.66471e+7 
        3703.57      2.66103e+7 
        3713.83      2.66078e+7 
        3724.38      2.65917e+7 
        3734.43      2.63764e+7 
        3744.62      2.65757e+7 
        3754.84      2.65784e+7 
        3765.07      2.65563e+7 
        3775.56      2.65741e+7 
        3786.57      2.66556e+7 
        3796.73      2.56901e+7 
        3807.05      2.67226e+7 
        3817.44       2.6877e+7 
        3827.86      2.64369e+7 
        3838.09      2.54629e+7 
        3848.36      2.69259e+7 
        3858.68      2.71829e+7 
         3868.9       2.7121e+7 
        3880.16      2.62921e+7 
        3890.18       2.2286e+7 
        3900.55      2.66272e+7 
        3910.61      2.72626e+7 
        3923.89      2.74224e+7 
        3935.81      2.73993e+7 
        3946.58      2.72086e+7 
        3957.31      2.64593e+7 
        3967.38      2.23819e+7 
        3977.47      2.51024e+7 
        3988.87      2.69356e+7 
        3999.16      2.72709e+7 
        4009.46      2.73543e+7 
        4023.86      2.73571e+7 
         4035.9      2.73278e+7 
        4048.86      2.72724e+7 
        4063.85      2.71422e+7 
        4075.42      2.68914e+7 
        4085.65      2.62599e+7 
        4095.76      2.35239e+7 
        4105.79      2.17643e+7 
        4116.11      2.59106e+7 
        4126.14      2.66375e+7 
        4138.83      2.68624e+7 
        4153.83      2.68945e+7 
        4168.82      2.68587e+7 
        4183.82       2.6804e+7 
        4198.82      2.67421e+7 
        4213.81      2.66755e+7 
        4224.95      2.66237e+7 
        4238.81      2.65563e+7 
         4253.8      2.64779e+7 
         4268.8      2.63891e+7 
        4283.79      2.62783e+7 
        4298.79      2.61131e+7 
        4313.79      2.57596e+7 
        4324.82      2.49489e+7 
        4334.94      2.15778e+7 
        4345.02       2.0504e+7 
         4355.5      2.46989e+7 
        4367.98      2.55204e+7 
        4378.77      2.56802e+7 
        4393.77      2.57149e+7 
        4408.76      2.56805e+7 
        4423.76      2.56211e+7 
        4438.75      2.55507e+7 
        4453.75      2.54753e+7 
        4468.74      2.53974e+7 
        4483.74      2.53181e+7 
        4498.74      2.52674e+7 
        4513.73      2.51849e+7 
        4527.19      2.51104e+7 
        4538.73      2.50462e+7 
        4553.72      2.49623e+7 
        4568.72       2.4878e+7 
        4583.72      2.47932e+7 
        4596.53      2.47204e+7 
        4608.71      2.46512e+7 
         4623.7      2.45653e+7 
         4638.7       2.4479e+7 
         4653.7      2.43924e+7 
        4668.69      2.43052e+7 
        4683.69      2.42175e+7 
        4698.68       2.4129e+7 
        4713.68      2.40395e+7 
        4724.83       2.3972e+7 
        4738.67      2.38867e+7 
        4753.67      2.37913e+7 
        4768.67      2.36908e+7 
        4783.66      2.35814e+7 
        4798.66      2.34525e+7 
        4813.65      2.32771e+7 
        4828.65      2.29645e+7 
        4839.16        2.247e+7 
        4849.43      2.10907e+7 
         4859.6      1.30395e+7 
        4869.86      1.98697e+7 
        4880.08      2.19688e+7 
        4891.95      2.25557e+7 
        4903.63      2.27113e+7 
        4915.55      2.27427e+7 
        4928.62      2.27211e+7 
        4943.62      2.26658e+7 
        4958.61      2.25961e+7 
        4973.61      2.25193e+7 
        4988.61      2.24387e+7 
         5003.6      2.23558e+7 
         5018.6      2.22714e+7 
         5033.6      2.21862e+7 
        5048.59      2.21004e+7 
        5063.59      2.20143e+7 
        5078.58       2.1928e+7 
        5093.58      2.18416e+7 
        5108.57      2.17552e+7 
        5123.57      2.16688e+7 
        5138.57      2.15824e+7 
        5153.56      2.14961e+7 
        5168.56      2.14098e+7 
        5183.56      2.13237e+7 
        5198.55      2.12376e+7 
        5213.55      2.11516e+7 
        5228.54      2.10658e+7 
        5243.54      2.09801e+7 
        5258.53      2.08945e+7 
        5273.53      2.08091e+7 
        5288.53      2.07238e+7 
        5303.52      2.06388e+7 
        5318.52      2.05538e+7 
        5333.52      2.04691e+7 
        5348.51      2.03845e+7 
        5363.51      2.03008e+7 
         5378.5      2.02165e+7 
         5393.5      2.01324e+7 
        5408.49      2.00485e+7 
        5423.49      1.99649e+7 
        5438.49      1.98813e+7 
        5453.48      1.97981e+7 
        5468.48       1.9715e+7 
        5483.48      1.96321e+7 
        5498.47      1.95494e+7 
        5513.47       1.9467e+7 
        5528.46      1.93848e+7 
        5543.46      1.93028e+7 
        5558.45      1.92211e+7 
        5573.45      1.91396e+7 
        5588.45      1.90583e+7 
        5603.44      1.89772e+7 
        5618.44      1.88964e+7 
        5633.43      1.88158e+7 
        5648.43      1.87355e+7 
        5663.43      1.86554e+7 
        5673.98      1.85995e+7 
         5686.2      1.85345e+7 
        5698.42      1.84697e+7 
        5708.88      1.84144e+7 
        5723.41      1.83378e+7 
        5738.41       1.8259e+7 
         5753.4      1.81804e+7 
         5768.4      1.80996e+7 
        5783.39      1.80215e+7 
        5798.39      1.79436e+7 
        5813.39       1.7866e+7 
        5828.38      1.77886e+7 
        5843.38      1.77115e+7 
        5858.37      1.76346e+7 
        5873.37       1.7558e+7 
        5888.37      1.74817e+7 
        5903.36      1.74056e+7 
        5918.36      1.73298e+7 
        5933.35      1.72543e+7 
        5948.35       1.7179e+7 
        5963.35      1.71039e+7 
        5978.34      1.70291e+7 
        5993.34      1.69546e+7 
        6008.33      1.68802e+7 
        6023.33      1.68062e+7 
        6038.32      1.67323e+7 
        6053.32      1.66588e+7 
        6068.32      1.65854e+7 
        6083.31      1.65124e+7 
        6098.31      1.64395e+7 
        6113.31       1.6367e+7 
         6128.3      1.62947e+7 
         6143.3      1.62226e+7 
        6158.29      1.61507e+7 
        6173.29      1.60791e+7 
        6188.28      1.60077e+7 
        6203.28      1.59365e+7 
        6218.28      1.58655e+7 
        6233.27      1.57946e+7 
        6244.38      1.57422e+7 
        6256.04      1.56874e+7 
        6266.59      1.56377e+7 
        6278.26      1.55829e+7 
        6290.52      1.55254e+7 
        6302.31      1.54701e+7 
        6312.59      1.54218e+7 
        6323.25      1.53717e+7 
        6338.24      1.53011e+7 
        6353.24      1.52302e+7 
        6368.24      1.51588e+7 
        6383.23      1.50867e+7 
        6398.23      1.50135e+7 
        6413.22      1.49385e+7 
        6428.22      1.48609e+7 
        6443.22      1.47792e+7 
        6458.21      1.46909e+7 
        6473.21      1.45914e+7 
         6488.2      1.44717e+7 
         6503.2      1.43124e+7 
         6518.2      1.40648e+7 
        6532.67      1.36076e+7 
        6543.19      1.29041e+7 
        6553.26      1.12599e+7 
        6563.29      7.31576e+6 
        6573.47      1.14641e+7 
        6585.56      1.30003e+7 
        6595.59      1.34636e+7 
         6608.5      1.37199e+7 
        6623.98      1.38302e+7 
         6634.3       1.3852e+7 
        6644.62      1.38527e+7 
        6660.33      1.38307e+7 
         6685.9      1.37644e+7 
        6711.48      1.36808e+7 
        6762.62      1.34949e+7 
        6802.75      1.33429e+7 
        6813.77      1.33009e+7 
        6824.78      1.32588e+7 
        6846.81      1.31752e+7 
        6890.86      1.30082e+7 
        6978.98      1.26777e+7 
        7025.03      1.25075e+7 
        7067.09      1.23538e+7 
        7109.15      1.22018e+7 
        7193.26      1.19053e+7 
        7277.38      1.16158e+7 
        7329.48      1.14398e+7 
         7361.5       1.1333e+7 
        7393.51       1.1228e+7 
        7457.55       1.1021e+7 
        7521.58      1.08177e+7 
        7585.61      1.06183e+7 
        7621.41      1.05084e+7 
        7649.65      1.04226e+7 
        7677.88      1.03374e+7 
        7734.35      1.01708e+7 
        7790.83      1.00069e+7 
         7847.3      9.84569e+6 
        7903.77       9.6872e+6 
        7958.24      9.53684e+6 
        7974.27      9.49323e+6 
         7990.3      9.44994e+6 
        8022.35      9.36396e+6 
        8082.55      9.20465e+6 
        8142.75      9.04876e+6 
        8200.85      8.90095e+6 
        8216.85      8.86086e+6 
        8232.84      8.82096e+6 
        8264.83       8.7418e+6 
        8289.72      8.68072e+6 
        8328.82      8.58569e+6 
        8343.44      8.55041e+6 
        8367.92      8.49176e+6 
        8388.68      8.44256e+6 
        8408.65      8.39556e+6 
        8432.02      8.34087e+6 
        8467.25      8.25906e+6 
        8502.48      8.17804e+6 
        8516.58      8.14628e+6 
        8530.98       8.1136e+6 
        8545.38      8.08074e+6 
        8574.18       8.0175e+6 
        8598.39      7.96268e+6 
         8628.6      7.89818e+6 
        8646.81      7.85854e+6 
        8665.01      7.81606e+6 
        8685.59       7.7751e+6 
        8701.43      7.74136e+6 
        8750.47      7.63008e+6 
        8767.92      7.60049e+6 
        8815.35      7.50225e+6 
        8862.78      7.38969e+6 
        8910.21      7.31265e+6 
        8957.65      7.21907e+6 
        8995.25      7.14131e+6 
        9009.99      7.10013e+6 
        9022.28      7.08124e+6 
        9041.94      7.05369e+6 
         9061.6      7.01926e+6 
        9099.72      6.94964e+6 
        9122.89      6.90692e+6 
        9149.42      6.85744e+6 
        9175.95      6.80635e+6 
        9189.21      6.77946e+6 
        9202.48      6.75062e+6 
        9215.74      6.71682e+6 
        9228.96      6.62933e+6 
        9244.95      6.66677e+6 
        9257.75      6.65235e+6 
        9270.55       6.6346e+6 
        9283.34      6.61525e+6 
        9296.14      6.59474e+6 
        9321.73      6.55242e+6 
        9361.76      6.48456e+6 
        9372.92      6.46555e+6 
        9384.08      6.44655e+6 
        9406.41      6.40872e+6 
        9451.07      6.33245e+6 
         9473.4      6.29305e+6 
        9495.72      6.25073e+6 
        9506.89      6.22692e+6 
        9518.05      6.19912e+6 
        9529.22      6.16418e+6 
        9540.38      6.10144e+6 
        9550.85      6.07531e+6 
        9561.33      6.10581e+6 
         9572.5      6.10697e+6 
        9583.67       6.1006e+6 
        9606.01      6.07578e+6 
        9628.35      6.04483e+6 
        9650.69      6.01175e+6 
        9668.45      5.98492e+6 
        9703.97      5.93114e+6 
           9775      5.82398e+6 
        9846.03      5.71848e+6 
         9881.3      5.66633e+6 
        9917.06      5.61324e+6 
        9952.82      5.55873e+6 
         9970.7      5.53027e+6 
        9988.58      5.49926e+6 
        9999.31      5.47837e+6 
        10011.8      5.44963e+6 
        10024.3      5.41174e+6 
        10036.8      5.35029e+6 
        10047.8      5.16104e+6 
        10058.4      5.29069e+6 
          10074      5.33779e+6 
        10086.5      5.34382e+6 
          10099      5.33948e+6 
        10124.1      5.31781e+6 
        10149.1      5.28928e+6 
        10161.1      5.27464e+6 
        10199.1      5.22673e+6 
        10237.2      5.17788e+6 
        10313.3       5.0825e+6 
        10389.3      4.98863e+6 
        10465.4      4.89642e+6 
        10541.5      4.80613e+6 
        10617.6      4.71764e+6 
        10693.7      4.63055e+6 
        10769.7      4.54397e+6 
        10807.8      4.49986e+6 
        10845.8       4.4527e+6 
        10864.8      4.42588e+6 
        10883.8      4.39305e+6 
        10902.9      4.34495e+6 
        10917.1       4.2808e+6 
          10929      4.16406e+6 
          10939      3.81399e+6 
        10950.6      4.16827e+6 
        10965.5      4.24935e+6 
        10977.4      4.27071e+6 
        10995.3      4.27659e+6 
        11007.3      4.27275e+6 
        11019.2      4.26603e+6 
        11043.1      4.24775e+6 
        11090.8      4.20424e+6 
        11111.7      4.18426e+6 
        11186.3      4.11172e+6 
        11260.9      4.03952e+6 
        11335.5      3.97097e+6 
        11410.1      3.90362e+6 
        11484.7      3.83764e+6 
        11559.4      3.77277e+6 
          11634      3.70912e+6 
        11708.6       3.6467e+6 
        11783.2      3.58547e+6 
        11857.8      3.52543e+6 
        11932.4      3.46653e+6 
          12007      3.40875e+6 
        12081.6      3.35189e+6 
        12156.2      3.29625e+6 
        12177.1      3.28089e+6 
        12230.9      3.24165e+6 
        12284.6      3.20292e+6 
        12338.4       3.1661e+6 
        12392.2      3.12969e+6 
        12445.9      3.09364e+6 
        12499.7      3.05786e+6 
        12553.5      3.02217e+6 
        12607.3      2.98613e+6 
          12661      2.94845e+6 
        12687.9       2.9279e+6 
        12714.8      2.90442e+6 
        12728.3      2.89059e+6 
        12741.7      2.87436e+6 
        12755.1       2.8539e+6 
        12768.6      2.82627e+6 
          12782       2.7846e+6 
        12792.1      2.73442e+6 
        12802.2      2.64938e+6 
        12812.3      2.44592e+6 
        12822.9      2.39457e+6 
        12834.1      2.61445e+6 
          12846      2.70194e+6 
          12858      2.74401e+6 
        12869.9      2.76531e+6 
        12887.8      2.77855e+6 
        12899.7      2.78103e+6 
        12911.7      2.78057e+6 
        12935.5      2.77492e+6 
        12959.4      2.76567e+6 
        12983.2       2.7547e+6 
          13031      2.73035e+6 
        13126.4      2.67867e+6 
        13221.9      2.62684e+6 
        13308.4      2.58052e+6 
        13394.8      2.53678e+6 
        13481.3      2.49376e+6 
        13567.8      2.45149e+6 
        13654.3      2.41011e+6 
        13740.8      2.36934e+6 
        13827.3      2.32932e+6 
        13913.8      2.29002e+6 
        14000.3      2.25143e+6 
        14086.7      2.21356e+6 
        14173.2       2.1764e+6 
