# Koester WD models
# teff = 7500 K (value for the effective temperature for the model. Temperatures are given in K)
# logg = 8.75 log(cm/s2) (value for Log(G) for the model.)
#
# column 1: WAVELENGTH (ANGSTROM), Wavelength in Angstrom
# column 2: FLUX (ERG/CM2/S/A), Flux in erg/cm2/s/A
         899.23         3.99557 
        909.241         5.14819 
        919.251          8.4474 
        929.261         13.9798 
        939.271         27.0875 
         949.28         14.2201 
        959.289         53.5155 
        969.297         61.9984 
        979.305         93.7765 
        989.312         127.606 
        999.319         164.822 
        1009.33         201.539 
        1019.33         198.094 
        1029.34         212.713 
        1039.34         365.961 
        1049.35         459.156 
        1059.36         546.423 
        1069.36         651.425 
        1079.36         764.736 
        1089.37         892.197 
        1099.37          1035.6 
        1109.38         1187.02 
        1119.38         1379.23 
        1129.38         1582.75 
        1139.39         1779.76 
        1149.39         1954.03 
        1159.39         2046.55 
        1169.39         2044.42 
         1179.4         1952.07 
         1189.4         2021.05 
         1199.4         2186.36 
         1209.4         2096.78 
        1219.41         2240.98 
        1229.41         3440.14 
        1239.41         4110.18 
        1249.41         4697.31 
        1259.41         5390.09 
        1269.41         6336.75 
        1279.42         7469.86 
        1289.42         8553.14 
        1299.42         9708.24 
        1309.42         10910.2 
        1319.42         12128.3 
        1329.42         13585.7 
        1339.42         15019.3 
        1349.42         16555.1 
        1359.42         18337.8 
        1369.42           20175 
        1379.42         21996.2 
        1389.42         24060.7 
        1399.42         26532.7 
        1409.42         28972.1 
        1419.42         31199.1 
        1429.42         33620.4 
        1439.42         36596.7 
        1454.42         41934.3 
        1464.42         45204.4 
        1476.35         48433.9 
        1489.42         52836.6 
        1501.92         57764.8 
        1514.42         64627.3 
        1529.42         72432.9 
        1541.92         78634.7 
        1554.42         82076.6 
        1566.72         86604.9 
        1579.41         92136.9 
        1594.41         99423.2 
        1604.41          105903 
        1616.91          117185 
        1629.41          132980 
        1641.91          153630 
        1654.41          180246 
        1665.56          210212 
        1676.33          243976 
         1687.1          287632 
        1698.05          354906 
        1708.62          444262 
         1719.4          552157 
         1734.4          729798 
        1746.89          868917 
        1758.14          975530 
        1769.39      1.06814e+6 
        1780.64      1.17417e+6 
        1791.89      1.33076e+6 
        1804.39      1.46862e+6 
        1824.38      1.70637e+6 
        1834.77       1.8402e+6 
        1846.32      1.99259e+6 
        1856.32      2.19505e+6 
        1866.33      2.37123e+6 
        1877.77      2.55602e+6 
        1893.03      2.82357e+6 
        1908.28      3.11174e+6 
        1919.37      3.33587e+6 
        1929.76      3.54431e+6 
        1939.82      3.92872e+6 
        1949.88      4.25356e+6 
         1960.7      4.49606e+6 
        1974.38      4.81813e+6 
        1997.55      5.39195e+6 
        2008.17      5.66872e+6 
        2020.22      6.00943e+6 
        2031.07      6.47696e+6 
        2043.12       6.8028e+6 
        2067.03      7.47231e+6 
        2081.31      7.89375e+6 
        2095.58      8.32689e+6 
        2105.92      8.64946e+6 
        2116.25      8.97933e+6 
        2126.59      9.31262e+6 
        2136.92       9.7821e+6 
        2149.84      1.02364e+7 
        2160.18      1.05672e+7 
        2176.07      1.10679e+7 
        2197.26      1.17392e+7 
         2214.7      1.23024e+7 
         2235.2       1.2937e+7 
        2249.56      1.33867e+7 
        2260.32      1.37509e+7 
        2271.09      1.43107e+7 
        2281.86      1.46961e+7 
        2292.63      1.50858e+7 
        2306.99      1.56158e+7 
        2325.43      1.62555e+7 
        2337.72      1.66712e+7 
        2362.17      1.75127e+7 
        2374.02      1.79162e+7 
        2385.87      1.83181e+7 
        2409.27      1.91188e+7 
        2455.96      2.07718e+7 
        2467.53      2.11606e+7 
        2478.96      2.15305e+7 
        2494.49      2.20266e+7 
        2510.01      2.25349e+7 
        2522.89      2.29101e+7 
        2533.47      2.32143e+7 
        2559.23      2.39435e+7 
        2595.57      2.50074e+7 
        2626.62      2.59556e+7 
        2642.14       2.6355e+7 
        2657.67      2.67468e+7 
         2673.2      2.70761e+7 
        2688.72       2.7397e+7 
        2704.24      2.77088e+7 
        2719.77       2.8012e+7 
        2745.53      2.84965e+7 
        2756.11      2.86886e+7 
        2766.68      2.88748e+7 
        2787.84      2.92354e+7 
        2805.74      2.95288e+7 
        2830.14      2.99128e+7 
        2854.55       3.0295e+7 
        2903.35      3.09208e+7 
        2951.33      3.14706e+7 
        2964.54      3.16019e+7 
        2977.74      3.17273e+7 
        3004.15      3.19641e+7 
        3051.42      3.23449e+7 
        3098.69      3.26738e+7 
        3142.06      3.29352e+7 
        3157.66      3.30112e+7 
        3173.25      3.30813e+7 
        3204.45      3.32076e+7 
        3248.29      3.33555e+7 
        3292.14      3.34316e+7 
        3325.24      3.34686e+7 
        3335.99      3.34771e+7 
        3346.73      3.34837e+7 
        3368.22      3.34906e+7 
        3411.18      3.34853e+7 
        3445.17      3.34636e+7 
        3482.66      3.34193e+7 
        3495.92      3.33986e+7 
        3513.13      3.33678e+7 
         3543.6       3.3305e+7 
        3591.28      3.31846e+7 
        3635.88      3.30499e+7 
        3647.12      3.30115e+7 
        3658.96      3.29723e+7 
        3671.11      3.29292e+7 
        3682.58      3.28884e+7 
         3693.5      3.28485e+7 
        3703.57      3.28086e+7 
        3713.83      3.27715e+7 
        3724.38       3.2731e+7 
        3734.43      3.26622e+7 
        3744.62      3.26518e+7 
        3754.84      3.26116e+7 
        3765.07      3.25692e+7 
         3775.5      3.25293e+7 
        3786.22       3.2496e+7 
        3796.45      3.23003e+7 
        3807.84      3.24338e+7 
        3818.92      3.24033e+7 
        3830.45      3.22133e+7 
        3840.76      3.22107e+7 
        3851.98      3.23795e+7 
        3862.01      3.23839e+7 
        3872.59      3.22601e+7 
         3884.4      3.15733e+7 
        3894.44      3.15947e+7 
        3905.54      3.22419e+7 
        3916.39      3.24099e+7 
        3928.22      3.24294e+7 
        3938.89      3.23509e+7 
        3950.65      3.20424e+7 
        3962.28      3.09126e+7 
         3972.5      2.87726e+7 
        3984.18      3.15413e+7 
        3996.36      3.21539e+7 
        4008.87      3.23075e+7 
        4023.86      3.23191e+7 
         4035.9      3.22808e+7 
        4048.86      3.22007e+7 
        4063.85      3.20059e+7 
        4075.42      3.16572e+7 
        4085.65        3.088e+7 
        4096.17      2.80911e+7 
        4106.39      2.70729e+7 
        4116.69      3.04275e+7 
        4128.84      3.13987e+7 
        4143.83      3.16855e+7 
        4158.83      3.17175e+7 
        4173.82      3.16735e+7 
        4188.82      3.16044e+7 
        4203.81      3.15234e+7 
        4216.52      3.14483e+7 
        4228.81       3.1371e+7 
        4243.81      3.12692e+7 
         4258.8       3.1154e+7 
         4273.8      3.10139e+7 
        4288.79       3.0817e+7 
        4303.79      3.04791e+7 
        4314.07      3.00146e+7 
        4324.82      2.88318e+7 
        4334.98      2.48963e+7 
        4345.32      2.38362e+7 
           4356       2.8462e+7 
        4366.07       2.9583e+7 
        4378.77      3.00141e+7 
        4393.77      3.01356e+7 
        4408.76      3.01259e+7 
        4423.76      3.00643e+7 
        4438.75      2.99802e+7 
        4453.75      2.98858e+7 
        4468.74      2.97864e+7 
        4483.74      2.96839e+7 
        4498.74      2.95927e+7 
        4513.73      2.94869e+7 
        4527.19       2.9391e+7 
        4538.73      2.93081e+7 
        4553.72      2.91998e+7 
        4568.72      2.90907e+7 
        4583.72      2.89811e+7 
        4596.53      2.88869e+7 
        4608.71      2.87973e+7 
         4623.7      2.86859e+7 
         4638.7      2.85739e+7 
         4653.7      2.84612e+7 
        4668.69      2.83476e+7 
        4683.69      2.82329e+7 
        4698.68      2.81166e+7 
        4713.68      2.79982e+7 
        4724.83      2.79082e+7 
        4738.67       2.7793e+7 
        4753.67      2.76621e+7 
        4768.67      2.75201e+7 
        4783.66      2.73583e+7 
        4798.66      2.71558e+7 
        4813.65      2.68612e+7 
        4828.65      2.63161e+7 
        4839.16      2.54884e+7 
        4849.43      2.34692e+7 
         4859.6      1.46243e+7 
        4869.86      2.17178e+7 
        4880.08      2.46929e+7 
        4891.46      2.57211e+7 
        4903.63      2.60992e+7 
        4915.55      2.62222e+7 
        4928.62      2.62461e+7 
        4943.62      2.62087e+7 
        4958.61      2.61394e+7 
        4973.61      2.60541e+7 
        4988.61        2.596e+7 
         5003.6      2.58608e+7 
         5018.6      2.57583e+7 
         5033.6      2.56542e+7 
        5048.59      2.55492e+7 
        5063.59      2.54434e+7 
        5078.58      2.53371e+7 
        5093.58      2.52304e+7 
        5108.57      2.51237e+7 
        5123.57      2.50168e+7 
        5138.57      2.49101e+7 
        5153.56      2.48034e+7 
        5168.56      2.46968e+7 
        5183.56      2.45904e+7 
        5198.55      2.44842e+7 
        5213.55      2.43782e+7 
        5228.54      2.42723e+7 
        5243.54      2.41667e+7 
        5258.53      2.40613e+7 
        5273.53      2.39562e+7 
        5288.53      2.38514e+7 
        5303.52      2.37469e+7 
        5318.52      2.36426e+7 
        5333.52      2.35386e+7 
        5348.51      2.34349e+7 
        5363.51      2.33332e+7 
         5378.5      2.32299e+7 
         5393.5      2.31268e+7 
        5408.49      2.30241e+7 
        5423.49      2.29218e+7 
        5438.49      2.28197e+7 
        5453.48      2.27179e+7 
        5468.48      2.26165e+7 
        5483.48      2.25155e+7 
        5498.47      2.24148e+7 
        5513.47      2.23144e+7 
        5528.46      2.22144e+7 
        5543.46      2.21146e+7 
        5558.45      2.20153e+7 
        5573.45      2.19163e+7 
        5588.45      2.18176e+7 
        5603.44      2.17192e+7 
        5618.44      2.16213e+7 
        5633.43      2.15236e+7 
        5648.43      2.14264e+7 
        5663.43      2.13294e+7 
        5673.98      2.12667e+7 
         5686.2      2.11881e+7 
        5698.42      2.11097e+7 
        5708.88      2.10428e+7 
        5723.41      2.09502e+7 
        5738.41      2.08549e+7 
         5753.4        2.076e+7 
         5768.4       2.0659e+7 
        5783.39      2.05646e+7 
        5798.39      2.04706e+7 
        5813.39       2.0377e+7 
        5828.38      2.02837e+7 
        5843.38      2.01908e+7 
        5858.37      2.00983e+7 
        5873.37      2.00061e+7 
        5888.37      1.99142e+7 
        5903.36      1.98227e+7 
        5918.36      1.97316e+7 
        5933.35      1.96408e+7 
        5948.35      1.95504e+7 
        5963.35      1.94603e+7 
        5978.34      1.93705e+7 
        5993.34       1.9281e+7 
        6008.33      1.91919e+7 
        6023.33      1.91031e+7 
        6038.32      1.90146e+7 
        6053.32      1.89264e+7 
        6068.32      1.88385e+7 
        6083.31       1.8751e+7 
        6098.31      1.86637e+7 
        6113.31      1.85768e+7 
         6128.3      1.84901e+7 
         6143.3      1.84037e+7 
        6158.29      1.83175e+7 
        6173.29      1.82316e+7 
        6188.28      1.81459e+7 
        6203.28      1.80603e+7 
        6218.28      1.79749e+7 
        6233.27      1.78895e+7 
        6244.38      1.78263e+7 
        6256.04      1.77599e+7 
        6266.59      1.76999e+7 
        6278.26      1.76334e+7 
        6290.52      1.75634e+7 
        6302.31      1.74959e+7 
        6312.59      1.74369e+7 
        6323.25      1.73753e+7 
        6338.24      1.72881e+7 
        6353.24      1.71998e+7 
        6368.24      1.71101e+7 
        6383.23      1.70183e+7 
        6398.23      1.69234e+7 
        6413.22      1.68244e+7 
        6428.22      1.67189e+7 
        6443.22      1.66039e+7 
        6458.21       1.6474e+7 
        6473.21      1.63202e+7 
         6488.2      1.61255e+7 
         6503.2      1.58556e+7 
         6518.2      1.54342e+7 
        6530.43      1.48475e+7 
        6541.53      1.38793e+7 
        6551.59      1.21365e+7 
        6561.85      8.54774e+6 
        6572.47      1.16451e+7 
        6583.18      1.35745e+7 
        6593.31       1.4438e+7 
        6603.34      1.48948e+7 
        6613.66       1.5158e+7 
        6623.98      1.53084e+7 
        6639.46      1.54191e+7 
        6649.78      1.54488e+7 
         6660.1      1.54573e+7 
        6680.74      1.54354e+7 
         6691.3      1.54116e+7 
        6701.39      1.53837e+7 
        6711.48      1.53521e+7 
        6731.66      1.52812e+7 
        6772.02      1.51216e+7 
        6824.78      1.48973e+7 
        6877.54      1.46688e+7 
         6930.3      1.44395e+7 
        6983.06      1.42117e+7 
        7035.82      1.39862e+7 
        7068.02      1.38499e+7 
        7088.58      1.37635e+7 
        7109.15      1.36776e+7 
        7150.27      1.35084e+7 
        7232.53      1.31759e+7 
        7314.78      1.28513e+7 
        7393.51      1.25503e+7 
        7472.25      1.22562e+7 
        7550.98      1.19692e+7 
        7581.55      1.18596e+7 
        7629.72      1.16891e+7 
        7677.88      1.15212e+7 
        7774.21      1.11954e+7 
        7870.55      1.08794e+7 
        7962.25      1.05874e+7 
        8025.35      1.03924e+7 
        8053.95      1.03053e+7 
        8082.55      1.02189e+7 
        8139.75      1.00492e+7 
        8191.03       9.8995e+6 
        8202.85      9.86535e+6 
        8216.85      9.82524e+6 
        8232.84      9.77959e+6 
        8264.83      9.68902e+6 
        8289.72      9.61921e+6 
        8328.82      9.51061e+6 
        8343.44      9.47033e+6 
        8367.92      9.40332e+6 
        8388.68      9.34715e+6 
        8408.65      9.29346e+6 
        8432.02      9.23104e+6 
        8467.25      9.13782e+6 
        8502.48      9.04562e+6 
        8516.58      9.00905e+6 
        8530.98      8.97185e+6 
        8545.38      8.93494e+6 
        8574.18       8.8619e+6 
        8598.39      8.80076e+6 
         8628.6      8.72552e+6 
        8646.81      8.68038e+6 
        8665.01      8.63511e+6 
        8685.59      8.58516e+6 
        8701.43      8.54658e+6 
        8750.47      8.42735e+6 
        8767.92      8.38667e+6 
        8815.35      8.27474e+6 
        8862.78      8.16299e+6 
        8900.38      8.07989e+6 
        8957.65      7.95143e+6 
        9014.91      7.81902e+6 
        9044.62      7.76039e+6 
        9072.17      7.70143e+6 
        9099.72      7.64265e+6 
        9154.81      7.52735e+6 
         9190.8      7.45214e+6 
         9209.9      7.41105e+6 
        9229.01      7.35846e+6 
        9267.22      7.29735e+6 
        9305.43       7.2229e+6 
        9379.63      7.07854e+6 
        9397.45       7.0443e+6 
        9415.28      7.01028e+6 
        9450.94       6.9422e+6 
        9498.52       6.8499e+6 
        9522.24      6.79998e+6 
         9534.1      6.76982e+6 
        9545.97      6.71883e+6 
        9557.83       6.7254e+6 
        9569.68      6.71217e+6 
        9587.48      6.68569e+6 
         9611.2      6.64698e+6 
        9648.83      6.58289e+6 
        9668.45      6.54909e+6 
        9688.08      6.51547e+6 
        9727.33       6.4485e+6 
        9805.83      6.31595e+6 
        9815.86      6.29921e+6 
        9884.34      6.18542e+6 
        9952.82      6.07034e+6 
        9993.24      5.99846e+6 
        10007.3      5.97072e+6 
        10021.3      5.93968e+6 
        10035.3      5.89919e+6 
        10045.9      5.84053e+6 
        10056.4      5.84346e+6 
        10068.7      5.85342e+6 
        10082.7      5.84566e+6 
        10096.7      5.83268e+6 
        10110.8        5.817e+6 
        10138.8      5.78141e+6 
        10152.7      5.76269e+6 
        10194.9      5.70347e+6 
        10237.2      5.64315e+6 
        10321.7       5.5248e+6 
        10406.2      5.40857e+6 
        10490.6      5.29443e+6 
        10575.1      5.18328e+6 
        10659.6      5.07414e+6 
        10744.1       4.9661e+6 
        10786.3      4.91144e+6 
        10828.6      4.85451e+6 
        10849.7      4.82366e+6 
        10870.8      4.78967e+6 
          10888      4.75719e+6 
        10900.5       4.7281e+6 
        10913.1       4.6904e+6 
        10925.6      4.62998e+6 
        10936.5      4.48773e+6 
        10946.7      4.56788e+6 
        10962.3      4.61905e+6 
        10974.9      4.63064e+6 
        10987.4      4.63338e+6 
        10999.9       4.6302e+6 
        11012.4      4.62408e+6 
        11037.4      4.60529e+6 
        11087.5      4.55757e+6 
        11137.6       4.5053e+6 
        11187.6      4.45189e+6 
        11214.5      4.42317e+6 
        11237.7      4.39842e+6 
        11260.9      4.37376e+6 
        11307.3      4.32626e+6 
        11400.2      4.23273e+6 
          11493      4.14166e+6 
        11585.9      4.05247e+6 
        11678.7      3.96551e+6 
        11771.6      3.88072e+6 
        11864.5      3.79803e+6 
        11957.3      3.71738e+6 
        12050.2       3.6384e+6 
          12143      3.56175e+6 
        12187.1      3.52606e+6 
        12235.9      3.48701e+6 
        12284.6      3.44843e+6 
        12382.2      3.37504e+6 
        12479.7      3.30272e+6 
        12577.2      3.23009e+6 
          12626      3.19227e+6 
        12674.8      3.15092e+6 
        12699.1      3.12729e+6 
        12723.5      3.09923e+6 
        12735.7      3.08264e+6 
        12747.9      3.06306e+6 
        12760.1       3.0386e+6 
        12772.3      3.00826e+6 
        12784.5      2.96569e+6 
        12796.7      2.90122e+6 
        12807.3      2.80109e+6 
          12818       2.5372e+6 
        12828.1        2.767e+6 
        12839.4      2.84893e+6 
        12852.4      2.90212e+6 
        12865.3      2.93411e+6 
        12878.3      2.95218e+6 
        12891.2      2.96286e+6 
        12904.2      2.96756e+6 
        12917.2      2.96892e+6 
        12943.1      2.96496e+6 
          12969      2.95601e+6 
        13020.8      2.93119e+6 
        13072.6      2.90257e+6 
        13124.4      2.87253e+6 
        13176.3      2.84205e+6 
        13228.1      2.81153e+6 
        13251.5      2.79779e+6 
        13279.9      2.78114e+6 
        13308.4      2.76455e+6 
        13365.2      2.73276e+6 
        13422.1      2.70129e+6 
          13479      2.67017e+6 
        13535.9      2.63944e+6 
        13592.8      2.60909e+6 
        13649.6      2.57942e+6 
        13706.5      2.54979e+6 
        13763.4      2.52054e+6 
        13820.3      2.49168e+6 
        13877.2      2.46318e+6 
          13934      2.43503e+6 
        13990.9      2.40725e+6 
        14047.8      2.37983e+6 
        14104.7      2.35277e+6 
        14161.6      2.32608e+6 
        14218.5      2.29974e+6 
        14275.3      2.27374e+6 
