# Koester WD models
# teff = 7250 K (value for the effective temperature for the model. Temperatures are given in K)
# logg = 7.5 log(cm/s2) (value for Log(G) for the model.)
#
# column 1: WAVELENGTH (ANGSTROM), Wavelength in Angstrom
# column 2: FLUX (ERG/CM2/S/A), Flux in erg/cm2/s/A
         899.23         1.03415 
        909.241         1.35241 
        919.251         3.26691 
        929.261         4.72291 
        939.271         11.9352 
         949.28         4.07948 
        959.289          26.427 
        969.297         28.3659 
        979.305         42.8457 
        989.312         56.6709 
        999.319         72.1379 
        1009.33         88.6375 
        1019.33         91.6937 
        1029.34         100.061 
        1039.34         165.585 
        1049.35         209.273 
        1059.36         251.963 
        1069.36         304.263 
        1079.36         361.173 
        1089.37         426.641 
        1099.37          500.23 
        1109.38         579.127 
        1119.38          678.27 
        1129.38         784.745 
        1139.39         890.371 
        1149.39         988.037 
        1159.39         1051.29 
        1169.39         1077.17 
         1179.4         1043.29 
         1189.4         1063.44 
         1199.4         1135.77 
         1209.4          1004.3 
        1219.41         1045.84 
        1229.41         1865.13 
        1239.41         2261.19 
        1249.41         2602.32 
        1259.41         2997.04 
        1269.41         3534.92 
        1279.42         4162.17 
        1289.42         4769.91 
        1299.42         5418.49 
        1309.42         6104.81 
        1319.42         6810.09 
        1329.42         7644.47 
        1339.42         8481.64 
        1349.42         9389.31 
        1359.42         10436.4 
        1369.42         11515.9 
        1379.42         12620.3 
        1389.42           13864 
        1399.42         15315.3 
        1409.42         16775.1 
        1419.42         18180.3 
        1429.42         19702.1 
        1439.42         21496.4 
        1454.42         24673.8 
        1464.42           26733 
        1476.35         28897.7 
        1487.11         31160.3 
        1499.42           34097 
        1509.42           37122 
        1524.42         42200.7 
        1536.92         46349.2 
        1549.42         49457.5 
        1559.42         51655.6 
        1570.19         54648.3 
        1584.41         58966.1 
        1599.41         64431.9 
        1611.91         70603.2 
        1624.41         79185.4 
        1636.91         90547.3 
        1649.41          105514 
        1661.91          126522 
        1673.25          152707 
        1683.44          187269 
        1693.63          254627 
         1704.4          388672 
        1715.48          578370 
        1726.56          805806 
         1736.9      1.02245e+6 
        1749.39      1.24844e+6 
        1764.39      1.42716e+6 
        1775.55      1.55796e+6 
        1785.64      1.74374e+6 
        1796.89      1.93307e+6 
        1814.38      2.18697e+6 
           1834      2.49229e+6 
        1846.32      2.69287e+6 
        1856.32      2.96785e+6 
        1866.33      3.19318e+6 
        1877.77      3.40737e+6 
        1893.03      3.71211e+6 
        1908.28      4.03293e+6 
        1919.37       4.2759e+6 
        1930.46      4.53822e+6 
        1940.51       5.0262e+6 
        1950.56      5.43398e+6 
        1963.38      5.74267e+6 
        1979.02      6.13283e+6 
        1999.87      6.66985e+6 
        2013.33      7.02724e+6 
        2024.54      7.44375e+6 
        2034.64      7.81311e+6 
        2052.58      8.27467e+6 
        2067.03      8.65097e+6 
        2095.93      9.42402e+6 
        2106.09      9.69998e+6 
        2116.25       9.9777e+6 
        2126.41      1.02556e+7 
        2136.57      1.06559e+7 
        2146.74      1.09685e+7 
        2156.89      1.12318e+7 
        2182.63      1.18953e+7 
         2214.7      1.27222e+7 
        2263.91      1.40459e+7 
        2313.08      1.53346e+7 
        2325.88      1.56265e+7 
        2338.68      1.59168e+7 
        2362.35      1.64491e+7 
        2409.27      1.74668e+7 
        2456.14      1.84923e+7 
        2469.49      1.87498e+7 
        2481.09      1.89688e+7 
        2498.55      1.93135e+7 
        2510.01       1.9524e+7 
        2521.47      1.97269e+7 
        2544.39      2.01256e+7 
        2559.23      2.03783e+7 
        2588.91       2.0879e+7 
        2638.89      2.17179e+7 
        2657.67      2.19876e+7 
         2671.9      2.21766e+7 
           2714      2.27139e+7 
        2756.11      2.32178e+7 
        2798.21      2.36821e+7 
        2826.09      2.39717e+7 
        2840.32      2.41241e+7 
        2854.55      2.42665e+7 
           2883       2.4511e+7 
        2926.83      2.48609e+7 
        2939.91      2.49591e+7 
        2952.98      2.50547e+7 
        2979.14      2.52313e+7 
        3011.48      2.54347e+7 
        3031.45      2.55521e+7 
        3051.42      2.56635e+7 
        3091.36      2.58653e+7 
        3149.86      2.61193e+7 
        3168.41      2.61826e+7 
        3208.35      2.63039e+7 
        3248.29      2.64052e+7 
        3309.63      2.65139e+7 
        3322.49      2.65313e+7 
        3346.73      2.65591e+7 
        3383.83      2.65882e+7 
        3445.17      2.66051e+7 
         3469.4      2.66007e+7 
        3495.92      2.65886e+7 
         3506.5      2.65807e+7 
         3543.6      2.65455e+7 
        3591.28      2.64836e+7 
        3635.88      2.64129e+7 
        3647.12      2.63915e+7 
        3658.96      2.63693e+7 
        3671.11      2.63452e+7 
        3682.58      2.63203e+7 
         3693.5      2.63014e+7 
        3703.57      2.62525e+7 
        3713.83      2.62645e+7 
        3724.38      2.62546e+7 
        3734.43      2.59039e+7 
        3744.62      2.62624e+7 
        3754.84      2.62846e+7 
        3765.07      2.62548e+7 
        3775.56      2.62861e+7 
        3786.57       2.6456e+7 
        3796.73      2.49969e+7 
        3807.58      2.65751e+7 
        3818.92      2.67724e+7 
        3829.97       2.5769e+7 
        3840.76      2.57369e+7 
        3851.98      2.70202e+7 
        3862.01      2.71837e+7 
        3872.59      2.69411e+7 
        3883.11      2.52652e+7 
        3893.29      2.43451e+7 
        3904.25      2.69124e+7 
        3916.01      2.73676e+7 
        3928.22      2.74343e+7 
        3938.89      2.73725e+7 
        3950.65      2.70185e+7 
        3961.37      2.54897e+7 
        3971.45      1.90261e+7 
        3982.23      2.61911e+7 
        3992.74      2.70976e+7 
        4003.87      2.73215e+7 
        4018.86      2.73587e+7 
        4032.38      2.73323e+7 
        4043.86        2.729e+7 
        4058.85      2.71908e+7 
        4073.85       2.6928e+7 
        4085.65      2.62282e+7 
        4095.76      2.33543e+7 
        4105.79      2.15482e+7 
        4116.11      2.58856e+7 
        4126.14      2.66203e+7 
        4138.83       2.6845e+7 
        4153.83      2.68736e+7 
        4168.82      2.68353e+7 
        4183.82      2.67786e+7 
        4198.82      2.67152e+7 
        4213.81      2.66474e+7 
        4224.95      2.65949e+7 
        4238.81      2.65267e+7 
         4253.8      2.64477e+7 
         4268.8      2.63588e+7 
        4283.79      2.62486e+7 
        4298.79      2.60851e+7 
        4313.79      2.57376e+7 
        4324.82      2.49369e+7 
        4334.94      2.15426e+7 
        4345.12      2.06121e+7 
        4356.08      2.47745e+7 
        4367.98      2.54984e+7 
        4378.77      2.56506e+7 
        4393.77      2.56807e+7 
        4408.76      2.56438e+7 
        4423.76      2.55827e+7 
        4438.75      2.55112e+7 
        4453.75       2.5435e+7 
        4468.74      2.53564e+7 
        4483.74      2.52765e+7 
        4498.74      2.52201e+7 
        4513.73      2.51373e+7 
        4527.19      2.50626e+7 
        4538.73      2.49981e+7 
        4553.72       2.4914e+7 
        4568.72      2.48294e+7 
        4583.72      2.47444e+7 
        4596.53      2.46716e+7 
        4608.71      2.46022e+7 
         4623.7      2.45162e+7 
         4638.7      2.44299e+7 
         4653.7      2.43433e+7 
        4668.69      2.42561e+7 
        4683.69      2.41685e+7 
        4698.68      2.40802e+7 
        4713.68      2.39909e+7 
        4724.83      2.39234e+7 
        4738.67      2.38383e+7 
        4753.67      2.37435e+7 
        4768.67       2.3644e+7 
        4783.66      2.35362e+7 
        4798.66      2.34103e+7 
        4813.65      2.32407e+7 
        4828.65      2.29413e+7 
        4839.16      2.24685e+7 
        4850.22      2.09429e+7 
        4860.22      1.14528e+7 
        4870.86      2.03414e+7 
        4882.28      2.21522e+7 
        4892.79      2.25534e+7 
        4903.63      2.26769e+7 
        4915.55      2.27012e+7 
        4928.62      2.26753e+7 
        4943.62      2.26172e+7 
        4958.61      2.25456e+7 
        4973.61      2.24677e+7 
        4988.61      2.23862e+7 
         5003.6      2.23027e+7 
         5018.6      2.22177e+7 
         5033.6       2.2132e+7 
        5048.59      2.20458e+7 
        5063.59      2.19594e+7 
        5078.58      2.18728e+7 
        5093.58      2.17861e+7 
        5108.57      2.16994e+7 
        5123.57      2.16127e+7 
        5138.57      2.15261e+7 
        5153.56      2.14395e+7 
        5168.56      2.13531e+7 
        5183.56      2.12667e+7 
        5198.55      2.11805e+7 
        5213.55      2.10943e+7 
        5228.54      2.10084e+7 
        5243.54      2.09225e+7 
        5258.53      2.08368e+7 
        5273.53      2.07512e+7 
        5288.53      2.06658e+7 
        5303.52      2.05805e+7 
        5318.52      2.04955e+7 
        5333.52      2.04106e+7 
        5348.51      2.03258e+7 
        5363.51      2.02418e+7 
         5378.5      2.01575e+7 
         5393.5      2.00732e+7 
        5408.49      1.99893e+7 
        5423.49      1.99054e+7 
        5438.49      1.98219e+7 
        5453.48      1.97385e+7 
        5468.48      1.96553e+7 
        5483.48      1.95723e+7 
        5498.47      1.94896e+7 
        5513.47      1.94071e+7 
        5528.46      1.93248e+7 
        5543.46      1.92428e+7 
        5558.45       1.9161e+7 
        5573.45      1.90794e+7 
        5588.45      1.89981e+7 
        5603.44       1.8917e+7 
        5618.44      1.88361e+7 
        5633.43      1.87555e+7 
        5648.43      1.86751e+7 
        5663.43       1.8595e+7 
        5673.98      1.85388e+7 
         5686.2      1.84739e+7 
        5698.42      1.84091e+7 
        5708.88      1.83537e+7 
        5723.41      1.82771e+7 
        5738.41      1.81982e+7 
         5753.4      1.81197e+7 
         5768.4      1.80393e+7 
        5783.39      1.79612e+7 
        5798.39      1.78834e+7 
        5813.39      1.78058e+7 
        5828.38      1.77284e+7 
        5843.38      1.76514e+7 
        5858.37      1.75746e+7 
        5873.37       1.7498e+7 
        5888.37      1.74218e+7 
        5903.36      1.73458e+7 
        5918.36      1.72701e+7 
        5933.35      1.71946e+7 
        5948.35      1.71194e+7 
        5963.35      1.70445e+7 
        5978.34      1.69698e+7 
        5993.34      1.68953e+7 
        6008.33      1.68211e+7 
        6023.33      1.67471e+7 
        6038.32      1.66734e+7 
        6053.32         1.66e+7 
        6068.32      1.65268e+7 
        6083.31      1.64538e+7 
        6098.31      1.63812e+7 
        6113.31      1.63088e+7 
         6128.3      1.62366e+7 
         6143.3      1.61647e+7 
        6158.29       1.6093e+7 
        6173.29      1.60216e+7 
        6188.28      1.59504e+7 
        6203.28      1.58794e+7 
        6218.28      1.58087e+7 
        6233.27      1.57381e+7 
        6244.38      1.56859e+7 
        6256.04      1.56312e+7 
        6266.59      1.55819e+7 
        6278.26      1.55273e+7 
        6290.52      1.54701e+7 
        6302.31       1.5415e+7 
        6312.59      1.53671e+7 
        6323.25      1.53173e+7 
        6338.24      1.52473e+7 
        6353.24       1.5177e+7 
        6368.24      1.51064e+7 
        6383.23      1.50352e+7 
        6398.23       1.4963e+7 
        6413.22      1.48895e+7 
        6428.22      1.48137e+7 
        6443.22      1.47344e+7 
        6458.21      1.46493e+7 
        6473.21      1.45546e+7 
         6488.2      1.44421e+7 
         6503.2      1.42944e+7 
         6518.2      1.40673e+7 
        6532.67       1.3647e+7 
        6543.19      1.29943e+7 
        6553.26      1.14118e+7 
        6563.29      7.30615e+6 
        6573.47       1.1611e+7 
        6585.56      1.30746e+7 
        6595.59      1.34942e+7 
         6608.5      1.37198e+7 
        6623.98      1.38101e+7 
         6634.3       1.3824e+7 
        6644.62      1.38192e+7 
        6660.33      1.37915e+7 
         6685.9      1.37201e+7 
        6711.48      1.36337e+7 
        6762.62      1.34454e+7 
        6802.75      1.32927e+7 
        6813.77      1.32505e+7 
        6824.78      1.32084e+7 
        6846.81      1.31247e+7 
        6890.86      1.29577e+7 
        6978.98      1.26277e+7 
        7025.03      1.24579e+7 
        7067.09      1.23045e+7 
        7109.15      1.21528e+7 
        7193.26      1.18573e+7 
        7277.38      1.15686e+7 
        7329.48      1.13932e+7 
         7361.5      1.12868e+7 
        7393.51       1.1182e+7 
        7457.55      1.09757e+7 
        7521.58      1.07732e+7 
        7585.61      1.05745e+7 
        7621.41       1.0465e+7 
        7649.65      1.03795e+7 
        7677.88      1.02947e+7 
        7734.35      1.01287e+7 
        7790.83      9.96541e+6 
         7847.3      9.80488e+6 
        7903.77      9.64701e+6 
        7958.24      9.49725e+6 
        7974.27      9.45384e+6 
         7990.3       9.4107e+6 
        8022.35      9.32506e+6 
        8082.55      9.16644e+6 
        8142.75      9.01122e+6 
        8200.85      8.86404e+6 
        8216.85      8.82411e+6 
        8232.84       8.7844e+6 
        8264.83      8.70557e+6 
        8289.72      8.64475e+6 
        8328.82      8.55013e+6 
        8343.44        8.515e+6 
        8367.92       8.4566e+6 
        8388.68      8.40762e+6 
        8408.65      8.36085e+6 
        8432.02      8.30643e+6 
        8467.25      8.22485e+6 
        8502.48      8.14408e+6 
        8516.58      8.11275e+6 
        8530.98      8.08021e+6 
        8545.38        8.047e+6 
        8574.18      7.98489e+6 
        8598.39      7.92916e+6 
         8628.6      7.86645e+6 
        8646.81      7.82696e+6 
        8665.01      7.78204e+6 
        8701.43      7.71066e+6 
        8725.22      7.65993e+6 
        8737.85      7.63219e+6 
        8750.47      7.59392e+6 
        8775.71      7.55456e+6 
        8786.57      7.53241e+6 
        8800.96      7.50281e+6 
        8815.35      7.47288e+6 
        8825.48      7.45201e+6 
        8844.13      7.41231e+6 
        8858.12      7.37451e+6 
        8872.11      7.35277e+6 
        8886.09         7.33e+6 
        8914.07       7.2775e+6 
        8951.37      7.20449e+6 
        8967.25      7.17226e+6 
        8983.14      7.13864e+6 
        8999.02      7.10185e+6 
        9010.94      7.05778e+6 
        9022.85      7.04731e+6 
        9036.75      7.03315e+6 
        9060.58      6.99504e+6 
        9084.98      6.95216e+6 
        9099.72      6.92545e+6 
        9114.46      6.89856e+6 
        9143.94       6.8439e+6 
        9176.79      6.77978e+6 
        9189.85      6.75197e+6 
         9202.9      6.72109e+6 
        9215.95      6.68273e+6 
        9227.38      6.59719e+6 
        9237.98      6.63269e+6 
        9260.83      6.62144e+6 
        9286.94      6.58629e+6 
        9313.05      6.54494e+6 
        9339.16      6.50156e+6 
        9384.08      6.42569e+6 
        9401.91      6.39562e+6 
        9437.93      6.33455e+6 
        9455.93      6.30339e+6 
        9473.94      6.27109e+6 
        9491.95      6.23644e+6 
        9509.95      6.19531e+6 
        9523.46        6.154e+6 
        9536.96      6.08718e+6 
        9547.51       5.9585e+6 
        9558.71      6.06554e+6 
        9570.54      6.07958e+6 
         9581.1      6.07857e+6 
         9593.9       6.0689e+6 
         9619.5      6.03776e+6 
        9668.45      5.96623e+6 
        9717.41      5.89253e+6 
        9815.32      5.74626e+6 
        9873.64      5.66046e+6 
        9913.23      5.60196e+6 
        9952.82      5.54174e+6 
        9972.61      5.50982e+6 
        9992.41      5.47394e+6 
        10012.2      5.42757e+6 
        10023.3      5.38984e+6 
        10036.3      5.31561e+6 
        10046.7      5.13613e+6 
        10057.5      5.23355e+6 
        10070.5      5.30464e+6 
        10083.5      5.32277e+6 
        10100.9      5.32073e+6 
        10118.3      5.30716e+6 
        10138.3       5.2862e+6 
          10153      5.26895e+6 
        10187.7      5.22604e+6 
        10237.2      5.16296e+6 
        10336.1      5.03984e+6 
          10435      4.91945e+6 
        10533.9      4.80192e+6 
        10632.8      4.68751e+6 
        10731.7      4.57526e+6 
        10781.2      4.51906e+6 
        10805.9       4.4904e+6 
        10830.6      4.46059e+6 
        10855.3      4.42807e+6 
        10867.7      4.40948e+6 
        10880.1      4.38793e+6 
        10892.4      4.36062e+6 
        10904.8      4.32242e+6 
        10917.1      4.25789e+6 
          10928      4.14024e+6 
          10938      3.58047e+6 
        10948.6      4.10955e+6 
        10959.8      4.21014e+6 
          10971      4.24787e+6 
        10985.9      4.26402e+6 
        11000.8      4.26424e+6 
        11015.8      4.25745e+6 
        11045.6      4.23506e+6 
        11075.5      4.20832e+6 
        11135.2      4.15127e+6 
          11195      4.09334e+6 
        11248.5      4.04172e+6 
        11260.9      4.02982e+6 
        11273.4      4.01835e+6 
        11298.2      3.99554e+6 
          11348       3.9503e+6 
        11447.6      3.86155e+6 
        11547.1      3.77484e+6 
        11646.6      3.69033e+6 
        11746.2      3.60793e+6 
        11845.7      3.52763e+6 
        11945.3      3.44934e+6 
        12044.8      3.37288e+6 
        12144.4      3.29845e+6 
        12203.2      3.25532e+6 
        12243.9      3.22585e+6 
        12284.6      3.19666e+6 
          12366      3.14125e+6 
        12447.5      3.08666e+6 
        12528.9      3.03262e+6 
        12610.3      2.97831e+6 
          12651      2.95008e+6 
        12691.7      2.91936e+6 
        12712.1      2.90171e+6 
        12732.4      2.88072e+6 
        12742.6      2.86801e+6 
        12752.8       2.8528e+6 
          12763       2.8339e+6 
        12773.1      2.80871e+6 
        12783.3      2.77351e+6 
        12793.5      2.71836e+6 
        12803.7       2.6177e+6 
        12813.9      2.34483e+6 
        12824.7      2.42367e+6 
        12837.1      2.63784e+6 
        12849.5      2.71425e+6 
        12869.4      2.76082e+6 
        12889.2      2.77471e+6 
          12909      2.77614e+6 
        12928.9      2.77197e+6 
        12948.7      2.76491e+6 
        12988.4      2.74675e+6 
        13067.7      2.70502e+6 
        13147.1      2.66173e+6 
        13226.4      2.61855e+6 
        13303.2      2.57743e+6 
        13313.5      2.57211e+6 
        13323.8      2.56691e+6 
        13344.3      2.55653e+6 
        13385.4      2.53591e+6 
        13467.6      2.49513e+6 
        13549.8      2.45504e+6 
          13632      2.41572e+6 
        13714.3      2.37695e+6 
        13796.5      2.33884e+6 
        13878.7       2.3014e+6 
        13960.9      2.26461e+6 
        14043.1      2.22844e+6 
        14125.3       2.1929e+6 
        14207.5      2.15799e+6 
