# Koester WD models
# teff = 7000 K (value for the effective temperature for the model. Temperatures are given in K)
# logg = 9 log(cm/s2) (value for Log(G) for the model.)
#
# column 1: WAVELENGTH (ANGSTROM), Wavelength in Angstrom
# column 2: FLUX (ERG/CM2/S/A), Flux in erg/cm2/s/A
         899.23         1.36192 
        909.241         1.77567 
        919.251         2.39469 
        929.261         3.27184 
        939.271         5.07556 
         949.28         4.82916 
        959.289         10.8757 
        969.297         14.1416 
        979.305         20.8032 
        989.312         28.1566 
        999.319         36.5072 
        1009.33         45.4614 
        1019.33         48.9809 
        1029.34         54.4341 
        1039.34         84.2688 
        1049.35         103.122 
        1059.36         123.532 
        1069.36         146.998 
        1079.36          174.34 
        1089.37         204.803 
        1099.37         240.564 
        1109.38         279.708 
        1119.38         328.595 
        1129.38         382.093 
        1139.39         437.577 
        1149.39         491.732 
        1159.39         530.348 
        1169.39         545.974 
         1179.4         546.182 
         1189.4          591.92 
         1199.4           661.4 
         1209.4         692.237 
        1219.41         768.622 
        1229.41         1037.96 
        1239.41         1224.12 
        1249.41         1405.63 
        1259.41         1614.74 
        1269.41         1895.34 
        1279.42          2234.3 
        1289.42         2573.65 
        1299.42         2933.93 
        1309.42         3322.55 
        1319.42         3724.55 
        1329.42         4197.36 
        1339.42          4679.5 
        1349.42         5201.88 
        1359.42         5807.61 
        1369.42         6432.82 
        1379.42         7080.65 
        1389.42         7815.18 
        1399.42         8657.35 
        1409.42         9511.83 
        1419.42         10367.1 
        1429.42           11294 
        1439.42         12354.6 
        1454.42           14221 
        1464.42         15481.7 
        1476.35         16864.9 
        1487.11         18252.4 
        1499.42         20028.5 
        1509.42         21855.3 
        1524.42         24946.3 
        1536.92         27547.9 
        1549.42         29591.1 
        1559.42         31019.2 
        1570.19         32902.8 
        1584.41         35686.9 
        1599.41         39180.4 
        1611.91         43064.3 
        1624.41         48439.9 
        1636.91         55573.2 
        1649.41         64423.7 
        1664.41           77232 
        1676.33         88631.9 
         1686.9          100128 
         1699.4          116584 
         1714.4          137657 
         1729.4          160558 
         1744.4          183663 
        1759.39          204739 
         1771.7          222063 
        1781.89          238558 
        1794.39          262417 
        1809.39          290706 
           1824          320329 
        1834.77          343687 
        1845.54          367975 
         1856.3          398034 
        1867.07          427414 
        1882.44          472103 
        1894.73          511467 
        1907.03          553677 
        1919.18          599199 
        1931.21          644743 
        1943.24          705099 
        1953.98          760853 
        1968.59          827250 
         1983.2          898426 
        1997.81          974780 
        2012.42      1.05602e+6 
         2023.2      1.12591e+6 
        2033.25      1.19716e+6 
        2050.14      1.30157e+6 
        2067.03      1.41186e+6 
        2083.92      1.53387e+6 
        2100.82      1.66573e+6 
        2116.25      1.79406e+6 
        2127.83      1.89694e+6 
        2139.41      2.02681e+6 
        2154.84      2.17507e+6 
        2165.47      2.28192e+6 
        2186.74      2.49729e+6 
        2200.72      2.64672e+6 
         2214.7      2.80259e+6 
        2232.02      2.98283e+6 
        2242.65       3.0952e+6 
        2253.28      3.20948e+6 
        2263.91      3.34313e+6 
        2274.55      3.51532e+6 
        2290.49      3.75568e+6 
        2301.12      3.92206e+6 
        2311.75      4.10449e+6 
        2332.49      4.42255e+6 
        2343.54      4.61195e+6 
         2354.6      4.80664e+6 
        2377.86      5.24605e+6 
        2393.37      5.55572e+6 
        2408.48      5.88961e+6 
        2421.13      6.18479e+6 
        2433.78      6.51981e+6 
        2446.42      6.83328e+6 
        2460.79      7.21765e+6 
        2474.59      7.60231e+6 
        2492.99      8.12271e+6 
        2510.01      8.60903e+6 
        2527.04      9.05753e+6 
        2544.07      9.50677e+6 
        2559.23      9.90613e+6 
         2574.4      1.03639e+7 
        2589.56      1.08243e+7 
        2604.73      1.13074e+7 
        2635.06      1.22421e+7 
        2646.36      1.25831e+7 
        2657.67      1.29237e+7 
        2668.97      1.31909e+7 
        2680.28      1.34549e+7 
        2691.59      1.37153e+7 
        2702.89      1.39723e+7 
         2714.2      1.42259e+7 
        2734.88      1.46804e+7 
        2756.11      1.51347e+7 
        2794.71      1.59317e+7 
        2824.63      1.65207e+7 
        2854.55      1.70909e+7 
        2875.78      1.74791e+7 
        2914.38      1.81596e+7 
        2933.68      1.84887e+7 
        2952.98      1.88093e+7 
        2972.28       1.9087e+7 
        2991.59      1.93563e+7 
        3010.89      1.96175e+7 
        3030.19      1.98707e+7 
        3047.55      2.00921e+7 
        3063.03      2.02904e+7 
         3078.5      2.04862e+7 
        3109.44       2.0864e+7 
        3149.86      2.13296e+7 
        3190.27      2.17567e+7 
        3213.08      2.19856e+7 
        3230.69      2.21564e+7 
        3248.29      2.23223e+7 
         3265.9      2.24313e+7 
        3283.51      2.25359e+7 
        3318.72      2.27326e+7 
        3346.73      2.28775e+7 
        3360.35      2.29418e+7 
        3402.76      2.31275e+7 
        3445.17      2.32922e+7 
        3516.37       2.3503e+7 
        3529.99      2.35371e+7 
         3543.6      2.35695e+7 
        3570.84      2.36242e+7 
        3591.28      2.36607e+7 
        3625.39      2.37099e+7 
        3635.88      2.37231e+7 
        3647.12      2.37349e+7 
        3658.96      2.37474e+7 
        3671.11      2.37581e+7 
        3682.58      2.37672e+7 
         3693.5      2.37747e+7 
        3703.57      2.37799e+7 
        3713.83      2.37852e+7 
        3724.38      2.37878e+7 
        3734.43      2.37814e+7 
        3744.62      2.37863e+7 
        3754.84      2.37843e+7 
        3765.07      2.37814e+7 
         3775.5      2.37779e+7 
        3786.22       2.3774e+7 
        3796.45       2.3754e+7 
        3807.84      2.37641e+7 
        3818.92      2.37581e+7 
        3830.45      2.37362e+7 
        3840.76      2.37346e+7 
        3851.98      2.37477e+7 
        3862.01      2.37443e+7 
        3872.59       2.3727e+7 
         3884.4      2.36063e+7 
        3894.46      2.36237e+7 
        3908.89      2.37369e+7 
        3923.89       2.3751e+7 
        3935.81      2.37409e+7 
        3946.58       2.3702e+7 
        3957.31      2.35707e+7 
        3967.38      2.28713e+7 
         3977.6      2.33423e+7 
        3987.66      2.36244e+7 
        3998.87      2.37091e+7 
        4013.86      2.37344e+7 
        4025.34      2.37318e+7 
         4035.9      2.37208e+7 
        4048.86      2.36957e+7 
        4063.85      2.36366e+7 
        4075.42      2.35325e+7 
         4085.7      2.32862e+7 
        4096.23       2.2205e+7 
        4106.79      2.20017e+7 
        4117.77      2.31732e+7 
        4128.84      2.34339e+7 
        4143.83      2.35194e+7 
        4158.83      2.35253e+7 
        4173.82      2.35067e+7 
        4188.82      2.34783e+7 
        4203.81      2.34443e+7 
        4216.52      2.34123e+7 
        4228.81      2.33787e+7 
        4243.81      2.33337e+7 
         4258.8      2.32824e+7 
         4273.8      2.32209e+7 
        4288.79      2.31371e+7 
        4303.79      2.29965e+7 
        4314.07       2.2803e+7 
        4326.14      2.21642e+7 
        4336.17       1.9614e+7 
        4346.58      2.03555e+7 
        4357.43      2.22009e+7 
        4367.98      2.26252e+7 
        4378.77      2.27585e+7 
        4393.77      2.27998e+7 
        4408.76      2.27847e+7 
        4423.76      2.27481e+7 
        4438.75      2.27019e+7 
        4453.75      2.26509e+7 
        4468.74       2.2597e+7 
        4483.74      2.25412e+7 
        4498.74      2.24861e+7 
        4513.73      2.24305e+7 
        4527.19      2.23796e+7 
        4538.73      2.23352e+7 
        4553.72      2.22767e+7 
        4568.72      2.22171e+7 
        4583.72      2.21567e+7 
        4596.53      2.21042e+7 
        4608.71      2.20537e+7 
         4623.7      2.19904e+7 
         4638.7      2.19263e+7 
         4653.7      2.18614e+7 
        4668.69      2.17956e+7 
        4683.69      2.17287e+7 
        4698.68      2.16604e+7 
        4713.68      2.15904e+7 
        4724.83       2.1537e+7 
        4738.67      2.14686e+7 
        4753.67      2.13908e+7 
        4768.67      2.13067e+7 
        4783.66      2.12116e+7 
        4798.66      2.10943e+7 
        4813.65       2.0927e+7 
        4828.65      2.06182e+7 
        4839.16      2.01349e+7 
        4850.22      1.86826e+7 
        4860.28      1.22459e+7 
        4870.86      1.81255e+7 
        4881.01      1.97238e+7 
        4893.63      2.03042e+7 
        4908.63      2.04946e+7 
         4921.7      2.05294e+7 
        4933.62       2.0521e+7 
        4948.62      2.04854e+7 
        4963.61      2.04358e+7 
        4978.61      2.03787e+7 
        4993.61      2.03172e+7 
         5008.6       2.0253e+7 
         5023.6      2.01869e+7 
        5038.59      2.01196e+7 
        5053.59      2.00516e+7 
        5068.59      1.99829e+7 
        5083.58      1.99137e+7 
        5098.58       1.9844e+7 
        5113.57      1.97741e+7 
        5128.57       1.9704e+7 
        5143.57      1.96337e+7 
        5158.56      1.95633e+7 
        5173.56      1.94927e+7 
        5188.55      1.94221e+7 
        5203.55      1.93515e+7 
        5218.55      1.92807e+7 
        5233.54        1.921e+7 
        5248.54      1.91392e+7 
        5263.53      1.90685e+7 
        5278.53      1.89978e+7 
        5293.52      1.89274e+7 
        5308.52       1.8857e+7 
        5323.52      1.87866e+7 
        5338.51      1.87163e+7 
        5353.51      1.86459e+7 
        5368.51       1.8577e+7 
         5383.5      1.85063e+7 
         5398.5      1.84357e+7 
        5413.49      1.83651e+7 
        5428.49      1.82946e+7 
        5443.48      1.82243e+7 
        5458.48       1.8154e+7 
        5473.48      1.80838e+7 
        5488.47       1.8014e+7 
        5503.47      1.79441e+7 
        5518.47      1.78745e+7 
        5533.46      1.78049e+7 
        5548.46      1.77354e+7 
        5563.45       1.7666e+7 
        5578.45      1.75968e+7 
        5593.44      1.75276e+7 
        5608.44      1.74586e+7 
        5623.44      1.73898e+7 
        5638.43       1.7321e+7 
        5653.43      1.72523e+7 
        5668.43      1.71886e+7 
        5682.86      1.71227e+7 
        5693.42      1.70746e+7 
        5704.77       1.7023e+7 
        5715.23      1.69754e+7 
        5728.41      1.69157e+7 
         5743.4      1.68479e+7 
         5758.4      1.67802e+7 
         5773.4      1.67069e+7 
        5788.39      1.66393e+7 
        5803.39      1.65719e+7 
        5818.39      1.65047e+7 
        5833.38      1.64377e+7 
        5848.38      1.63707e+7 
        5863.37       1.6304e+7 
        5878.37      1.62374e+7 
        5893.36       1.6171e+7 
        5908.36      1.61048e+7 
        5923.36      1.60387e+7 
        5938.35      1.59728e+7 
        5953.35       1.5907e+7 
        5968.34      1.58414e+7 
        5983.34       1.5776e+7 
        5998.34      1.57107e+7 
        6013.33      1.56455e+7 
        6028.33      1.55805e+7 
        6043.32      1.55156e+7 
        6058.32      1.54509e+7 
        6073.32      1.53863e+7 
        6088.31      1.53219e+7 
        6103.31      1.52576e+7 
         6118.3      1.51934e+7 
         6133.3      1.51294e+7 
         6148.3      1.50654e+7 
        6163.29      1.50016e+7 
        6178.29      1.49379e+7 
        6193.28      1.48742e+7 
        6208.28      1.48105e+7 
        6223.28      1.47468e+7 
        6238.27      1.46831e+7 
        6252.16      1.46241e+7 
        6262.16      1.45815e+7 
        6273.26      1.45342e+7 
        6284.63      1.44856e+7 
        6295.99      1.44368e+7 
        6306.09      1.43933e+7 
        6316.22      1.43494e+7 
        6328.25      1.42969e+7 
        6343.24      1.42308e+7 
        6358.24      1.41636e+7 
        6373.23      1.40949e+7 
        6388.23      1.40243e+7 
        6403.23      1.39508e+7 
        6418.22      1.38732e+7 
        6433.22      1.37896e+7 
        6448.22      1.36971e+7 
        6463.21      1.35905e+7 
        6478.21       1.3461e+7 
         6493.2      1.32918e+7 
         6508.2      1.30473e+7 
        6523.19      1.26465e+7 
        6537.09       1.1953e+7 
        6548.06      1.08439e+7 
        6558.19      8.54366e+6 
        6569.28      9.12705e+6 
        6579.49      1.10159e+7 
        6590.04      1.18821e+7 
        6603.34      1.23997e+7 
        6613.66      1.26079e+7 
        6623.98       1.2729e+7 
        6639.46      1.28207e+7 
        6649.78      1.28469e+7 
         6660.1      1.28562e+7 
        6680.74      1.28434e+7 
         6691.3      1.28266e+7 
        6701.39      1.28065e+7 
        6711.48      1.27832e+7 
        6731.66      1.27305e+7 
        6772.02      1.26102e+7 
        6824.78      1.24395e+7 
        6877.54      1.22643e+7 
         6930.3      1.20878e+7 
        6983.06      1.19118e+7 
        7035.82       1.1737e+7 
        7068.02      1.16312e+7 
        7088.58      1.15639e+7 
        7109.15       1.1497e+7 
        7150.27      1.13651e+7 
        7232.53       1.1105e+7 
        7314.78      1.08501e+7 
        7393.51      1.06133e+7 
        7472.25      1.03807e+7 
        7550.98       1.0153e+7 
        7581.55      1.00659e+7 
        7629.72       9.9302e+6 
        7677.88      9.79627e+6 
        7774.21       9.5358e+6 
        7870.55      9.28224e+6 
        7962.25      9.04722e+6 
        8025.35      8.88986e+6 
        8053.95      8.81946e+6 
        8082.55      8.74962e+6 
        8139.75      8.61211e+6 
        8191.03      8.49069e+6 
        8202.85      8.46298e+6 
        8216.85      8.43037e+6 
        8232.84       8.3933e+6 
        8264.83      8.31963e+6 
        8289.72       8.2628e+6 
        8328.82      8.17433e+6 
        8343.44       8.1415e+6 
        8367.92      8.08684e+6 
        8388.68      8.04097e+6 
        8408.65      7.99711e+6 
        8432.02      7.94612e+6 
        8467.25      7.86988e+6 
        8502.48      7.79442e+6 
        8516.58      7.76445e+6 
        8530.98      7.73394e+6 
        8545.38      7.70375e+6 
        8574.18      7.64378e+6 
        8598.39      7.59367e+6 
         8628.6      7.53175e+6 
        8646.81      7.49465e+6 
        8665.01      7.45764e+6 
        8685.59      7.41626e+6 
        8701.43       7.3845e+6 
        8750.47      7.28692e+6 
        8767.92      7.25281e+6 
        8815.35      7.16038e+6 
        8862.78      7.06949e+6 
        8900.38      6.99909e+6 
        8957.65      6.89269e+6 
        9014.91        6.787e+6 
        9044.62      6.73435e+6 
        9072.17      6.68506e+6 
        9099.72      6.63614e+6 
        9154.81      6.54023e+6 
         9190.8      6.47831e+6 
         9209.9      6.44551e+6 
        9229.01      6.41083e+6 
        9267.22      6.34913e+6 
         9303.2      6.28941e+6 
        9343.64      6.22293e+6 
        9384.08      6.15714e+6 
        9464.96      6.02875e+6 
        9545.72      5.89554e+6 
        9561.21      5.87748e+6 
        9576.69      5.85533e+6 
        9607.66      5.80953e+6 
        9668.45       5.7194e+6 
        9729.24      5.63121e+6 
        9790.04      5.54441e+6 
        9850.83      5.45902e+6 
        9870.42      5.43175e+6 
        9911.62      5.37479e+6 
        9952.82      5.31812e+6 
        10021.1      5.22152e+6 
        10035.2      5.19767e+6 
        10049.4      5.16424e+6 
        10063.5      5.16063e+6 
        10077.7      5.14741e+6 
          10106      5.11502e+6 
        10162.5      5.04527e+6 
        10201.1      4.99736e+6 
        10219.1      4.97503e+6 
        10237.2      4.95278e+6 
        10273.3       4.9094e+6 
        10345.5      4.82379e+6 
        10417.8      4.73975e+6 
          10490      4.65713e+6 
        10562.2      4.57623e+6 
        10634.4      4.49678e+6 
        10706.7      4.41865e+6 
        10778.9      4.34146e+6 
          10815      4.30279e+6 
        10851.1       4.2632e+6 
        10887.2      4.22004e+6 
        10908.6      4.18809e+6 
        10923.4      4.15705e+6 
        10934.4      4.12186e+6 
        10945.4      4.12004e+6 
        10956.5      4.12793e+6 
        10978.6      4.12299e+6 
          11008      4.10245e+6 
        11037.5      4.07728e+6 
        11096.4      4.02322e+6 
        11155.3      3.96818e+6 
        11167.6      3.95674e+6 
        11214.3      3.91348e+6 
        11260.9       3.8706e+6 
        11354.2      3.78904e+6 
        11447.5      3.70947e+6 
        11540.8      3.63156e+6 
        11634.1      3.55547e+6 
        11727.5       3.4812e+6 
        11820.8      3.40869e+6 
        11914.1      3.33788e+6 
        12007.4      3.26876e+6 
        12100.7        3.201e+6 
          12194      3.13503e+6 
        12284.6       3.0724e+6 
        12375.2      3.01328e+6 
        12465.9       2.9552e+6 
        12556.5      2.89779e+6 
        12647.1      2.83968e+6 
        12657.4      2.83286e+6 
        12697.5      2.80487e+6 
        12717.6      2.78938e+6 
        12737.7      2.77183e+6 
        12757.8      2.75008e+6 
        12767.8       2.7365e+6 
        12777.9      2.71942e+6 
        12787.9      2.69706e+6 
          12798      2.66561e+6 
          12808      2.61966e+6 
        12818.1      2.54001e+6 
        12832.5      2.62325e+6 
        12842.5      2.64794e+6 
        12852.6      2.66193e+6 
        12862.6      2.66984e+6 
        12872.7      2.67376e+6 
        12892.8      2.67543e+6 
        12912.8      2.67173e+6 
        12932.9      2.66549e+6 
        12973.1       2.6485e+6 
        13053.5      2.60841e+6 
        13133.8       2.5664e+6 
        13214.1       2.5244e+6 
        13280.6      2.49002e+6 
        13294.5       2.4829e+6 
        13308.4      2.47581e+6 
        13336.1      2.46221e+6 
        13391.5      2.43523e+6 
        13446.9      2.40855e+6 
        13502.4      2.38218e+6 
        13557.8      2.35612e+6 
        13613.3      2.33037e+6 
        13668.7      2.30512e+6 
        13724.1      2.27997e+6 
        13779.6      2.25513e+6 
          13835       2.2306e+6 
        13890.4      2.20636e+6 
        13945.9      2.18243e+6 
        14001.3      2.15879e+6 
        14056.8      2.13544e+6 
        14112.2      2.11237e+6 
        14167.6      2.08959e+6 
        14223.1      2.06709e+6 
        14278.5      2.04487e+6 
        14332.1      2.02365e+6 
        14385.6      2.00302e+6 
        14420.7      1.98962e+6 
        14439.2      1.98262e+6 
        14457.6      1.97565e+6 
        14494.5      1.96183e+6 
        14553.4         1.94e+6 
        14568.3      1.93452e+6 
        14581.2      1.92979e+6 
        14597.2      1.92396e+6 
        14613.2      1.91816e+6 
