# Koester WD models
# teff = 7500 K (value for the effective temperature for the model. Temperatures are given in K)
# logg = 8.25 log(cm/s2) (value for Log(G) for the model.)
#
# column 1: WAVELENGTH (ANGSTROM), Wavelength in Angstrom
# column 2: FLUX (ERG/CM2/S/A), Flux in erg/cm2/s/A
         899.23          2.8873 
        909.241          3.7335 
        919.251         7.32475 
        929.261         11.7835 
        939.271         27.1036 
         949.28         10.6512 
        959.289         58.6796 
        969.297         61.9692 
        979.305         95.0055 
        989.312         127.569 
        999.319         162.991 
        1009.33         197.867 
        1019.33          194.17 
        1029.34         208.579 
        1039.34         358.296 
        1049.35         453.756 
        1059.36         541.519 
        1069.36         649.992 
        1079.36          764.61 
        1089.37         895.888 
        1099.37         1041.35 
        1109.38         1194.45 
        1119.38         1388.89 
        1129.38         1594.23 
        1139.39         1791.82 
        1149.39         1965.24 
        1159.39         2059.08 
        1169.39         2069.88 
         1179.4         1985.58 
         1189.4         2030.09 
         1199.4         2171.97 
         1209.4         1982.01 
        1219.41         2080.33 
        1229.41         3471.74 
        1239.41         4174.58 
        1249.41         4776.51 
        1259.41         5478.28 
        1269.41         6434.11 
        1279.42         7562.91 
        1289.42         8643.02 
        1299.42         9798.44 
        1309.42         11004.2 
        1319.42         12226.9 
        1329.42         13684.1 
        1339.42         15121.8 
        1349.42           16669 
        1359.42         18459.1 
        1369.42         20302.9 
        1379.42         22140.7 
        1389.42         24216.5 
        1399.42         26702.4 
        1409.42         29157.5 
        1419.42         31397.9 
        1429.42         33833.4 
        1439.42         36827.3 
        1454.42         42196.6 
        1464.42         45486.8 
        1476.35         48734.9 
        1487.11           52332 
        1499.42         57089.6 
        1509.42         62083.8 
        1524.42         70360.7 
        1536.92         76860.3 
        1549.42         81335.8 
        1559.42         84363.7 
        1570.19         88951.7 
        1584.41         95419.9 
        1599.41          103754 
        1611.91          113431 
        1624.41          127085 
        1636.91          145547 
        1649.41          169765 
        1661.91          202796 
        1673.25          241892 
        1683.44          289718 
         1694.4          380906 
        1704.77          527335 
        1715.14          719126 
        1728.23      1.00517e+6 
         1739.4       1.2579e+6 
        1751.52      1.48907e+6 
        1761.89      1.63799e+6 
        1774.39      1.80551e+6 
        1785.64      2.03719e+6 
        1796.89       2.2588e+6 
        1814.38       2.5522e+6 
           1834       2.9067e+6 
        1846.32      3.14119e+6 
        1856.32      3.46518e+6 
        1866.33      3.73193e+6 
        1877.77      3.98784e+6 
        1893.03      4.35268e+6 
        1908.28      4.73966e+6 
        1919.37      5.03597e+6 
        1929.76      5.32098e+6 
        1939.82      5.90255e+6 
        1949.88      6.36226e+6 
         1960.7      6.67651e+6 
        1974.38      7.08508e+6 
        1997.55      7.80215e+6 
        2007.68       8.1268e+6 
        2017.81      8.46015e+6 
        2027.94      9.04289e+6 
        2038.08      9.40847e+6 
        2057.07      1.00229e+7 
        2086.95      1.10151e+7 
        2103.95       1.1593e+7 
        2116.25      1.20164e+7 
        2128.56      1.24412e+7 
        2140.86      1.30951e+7 
        2153.17      1.35038e+7 
        2165.42      1.39117e+7 
        2178.22      1.43329e+7 
        2191.02      1.47561e+7 
         2214.7      1.55416e+7 
        2260.18      1.70379e+7 
        2271.38      1.76257e+7 
        2281.93      1.79686e+7 
        2297.53      1.84754e+7 
        2313.13      1.89813e+7 
        2326.33      1.93711e+7 
        2344.34      1.99003e+7 
        2362.35      2.04249e+7 
        2387.49        2.113e+7 
        2398.38      2.14324e+7 
        2409.27      2.17317e+7 
        2420.17      2.20392e+7 
        2431.06      2.24372e+7 
        2441.95      2.27068e+7 
        2452.85      2.29733e+7 
        2466.76      2.33186e+7 
        2488.39      2.38398e+7 
        2510.01      2.43776e+7 
         2547.3      2.52001e+7 
        2559.23      2.54556e+7 
        2571.17      2.57166e+7 
        2595.04      2.62276e+7 
        2627.89      2.69828e+7 
        2642.78      2.72582e+7 
        2657.67      2.75284e+7 
        2678.36      2.78612e+7 
        2717.24      2.84566e+7 
        2756.11       2.9014e+7 
        2794.98      2.95262e+7 
        2813.16       2.9753e+7 
        2833.85      3.00085e+7 
        2854.55      3.02632e+7 
        2895.93      3.06652e+7 
        2921.65       3.0896e+7 
        2937.32      3.10296e+7 
        2952.98      3.11583e+7 
        2984.31      3.13877e+7 
        3042.53      3.17615e+7 
        3060.31       3.1862e+7 
         3077.5      3.19531e+7 
        3113.68      3.21297e+7 
        3149.86      3.22789e+7 
        3196.14      3.24124e+7 
        3222.22      3.24731e+7 
        3248.29      3.25237e+7 
        3300.45      3.25764e+7 
        3346.73      3.25915e+7 
        3433.42      3.25434e+7 
        3445.17      3.25302e+7 
        3456.92      3.25145e+7 
        3480.41      3.24794e+7 
        3511.22       3.2419e+7 
        3527.41      3.23823e+7 
         3543.6       3.2343e+7 
        3560.69      3.22981e+7 
        3575.99      3.22557e+7 
        3591.28      3.22111e+7 
        3604.78      3.21693e+7 
        3621.87      3.21146e+7 
        3635.88      3.20681e+7 
        3647.12      3.20279e+7 
        3658.96      3.19864e+7 
        3671.11      3.19418e+7 
        3682.58      3.18991e+7 
         3693.5      3.18586e+7 
        3703.57       3.1814e+7 
        3713.83      3.17819e+7 
        3724.38      3.17445e+7 
        3734.43      3.16176e+7 
        3744.62      3.16792e+7 
        3754.84      3.16493e+7 
        3765.07      3.16107e+7 
         3775.5      3.15909e+7 
        3786.22         3.16e+7 
        3796.45      3.10666e+7 
        3806.86      3.16007e+7 
        3817.36      3.16622e+7 
        3827.86      3.13494e+7 
        3837.97      3.06517e+7 
        3848.91      3.17012e+7 
        3862.01      3.18702e+7 
        3872.59       3.1644e+7 
        3883.67      3.03327e+7 
        3894.29      3.01708e+7 
        3905.58      3.16962e+7 
        3916.16      3.20376e+7 
        3928.22       3.2103e+7 
        3938.89      3.20128e+7 
        3950.65      3.15733e+7 
        3961.37      3.00256e+7 
        3971.57       2.4907e+7 
        3981.61      3.05088e+7 
        3992.64      3.16431e+7 
        4003.87       3.1961e+7 
        4018.86      3.20317e+7 
        4032.38      3.20037e+7 
        4043.86      3.19459e+7 
        4058.85      3.17932e+7 
        4073.85      3.13896e+7 
        4085.65      3.04017e+7 
        4096.17      2.68356e+7 
        4106.25      2.55739e+7 
        4116.69      2.99966e+7 
        4128.84      3.10753e+7 
        4143.83      3.13773e+7 
        4158.83      3.14048e+7 
        4173.82      3.13557e+7 
        4188.82      3.12832e+7 
        4203.81      3.12001e+7 
        4216.52      3.11241e+7 
        4228.81      3.10465e+7 
        4243.81      3.09454e+7 
         4258.8      3.08323e+7 
         4273.8      3.06959e+7 
        4288.79      3.05067e+7 
        4303.79      3.01829e+7 
        4314.07      2.97325e+7 
        4324.82      2.85386e+7 
        4334.94      2.42734e+7 
        4345.17      2.30939e+7 
        4356.08       2.8282e+7 
        4368.77      2.94717e+7 
        4383.77      2.97869e+7 
        4398.76      2.98299e+7 
        4413.76      2.97908e+7 
        4428.76      2.97158e+7 
        4443.75      2.96252e+7 
        4458.75      2.95279e+7 
        4473.74      2.94273e+7 
        4488.74      2.93246e+7 
        4503.74      2.92586e+7 
        4514.12      2.91849e+7 
        4527.19      2.90916e+7 
        4538.73      2.90088e+7 
        4553.72      2.89007e+7 
        4568.72      2.87921e+7 
        4583.72       2.8683e+7 
        4596.53      2.85894e+7 
        4608.71      2.85005e+7 
         4623.7      2.83902e+7 
         4638.7      2.82794e+7 
         4653.7      2.81681e+7 
        4668.69      2.80562e+7 
        4683.69      2.79434e+7 
        4698.68      2.78295e+7 
        4713.68      2.77139e+7 
        4724.83      2.76263e+7 
        4738.67      2.75148e+7 
        4753.67       2.7389e+7 
        4768.67      2.72541e+7 
        4783.66      2.71031e+7 
        4798.66      2.69178e+7 
        4813.65      2.66537e+7 
        4828.65      2.61694e+7 
        4839.16      2.54204e+7 
        4849.43      2.34996e+7 
         4859.6      1.42813e+7 
        4869.86      2.18806e+7 
        4880.08      2.47215e+7 
        4891.46      2.56174e+7 
        4903.63       2.5923e+7 
        4915.55      2.60103e+7 
        4928.62      2.60129e+7 
        4943.62      2.59624e+7 
        4958.61      2.58859e+7 
        4973.61      2.57967e+7 
        4988.61      2.57004e+7 
         5003.6      2.56001e+7 
         5018.6      2.54971e+7 
         5033.6      2.53927e+7 
        5048.59      2.52873e+7 
        5063.59      2.51815e+7 
        5078.58      2.50753e+7 
        5093.58       2.4969e+7 
        5108.57      2.48626e+7 
        5123.57      2.47563e+7 
        5138.57        2.465e+7 
        5153.56      2.45439e+7 
        5168.56      2.44379e+7 
        5183.56      2.43321e+7 
        5198.55      2.42265e+7 
        5213.55      2.41211e+7 
        5228.54       2.4016e+7 
        5243.54      2.39111e+7 
        5258.53      2.38064e+7 
        5273.53       2.3702e+7 
        5288.53      2.35979e+7 
        5303.52      2.34941e+7 
        5318.52      2.33905e+7 
        5333.52      2.32872e+7 
        5348.51      2.31842e+7 
        5363.51      2.30827e+7 
         5378.5      2.29802e+7 
         5393.5       2.2878e+7 
        5408.49      2.27762e+7 
        5423.49      2.26746e+7 
        5438.49      2.25733e+7 
        5453.48      2.24724e+7 
        5468.48      2.23718e+7 
        5483.48      2.22716e+7 
        5498.47      2.21717e+7 
        5513.47      2.20721e+7 
        5528.46      2.19729e+7 
        5543.46       2.1874e+7 
        5558.45      2.17754e+7 
        5573.45      2.16772e+7 
        5588.45      2.15793e+7 
        5603.44      2.14818e+7 
        5618.44      2.13847e+7 
        5633.43      2.12878e+7 
        5648.43      2.11914e+7 
        5663.43      2.10953e+7 
        5673.98      2.10297e+7 
         5686.2      2.09518e+7 
        5698.42      2.08741e+7 
        5708.88      2.08078e+7 
        5723.41       2.0716e+7 
        5738.41      2.06216e+7 
         5753.4      2.05276e+7 
         5768.4      2.04295e+7 
        5783.39      2.03361e+7 
        5798.39       2.0243e+7 
        5813.39      2.01503e+7 
        5828.38       2.0058e+7 
        5843.38       1.9966e+7 
        5858.37      1.98743e+7 
        5873.37      1.97831e+7 
        5888.37      1.96922e+7 
        5903.36      1.96016e+7 
        5918.36      1.95114e+7 
        5933.35      1.94216e+7 
        5948.35      1.93321e+7 
        5963.35       1.9243e+7 
        5978.34      1.91542e+7 
        5993.34      1.90657e+7 
        6008.33      1.89775e+7 
        6023.33      1.88897e+7 
        6038.32      1.88021e+7 
        6053.32      1.87149e+7 
        6068.32      1.86281e+7 
        6083.31      1.85416e+7 
        6098.31      1.84553e+7 
        6113.31      1.83695e+7 
         6128.3      1.82839e+7 
         6143.3      1.81986e+7 
        6158.29      1.81136e+7 
        6173.29      1.80288e+7 
        6188.28      1.79444e+7 
        6203.28      1.78601e+7 
        6218.28      1.77761e+7 
        6233.27      1.76922e+7 
        6244.38      1.76302e+7 
        6256.04      1.75651e+7 
        6266.59      1.75064e+7 
        6278.26      1.74413e+7 
        6290.52       1.7373e+7 
        6302.31      1.73072e+7 
        6312.59      1.72498e+7 
        6323.25      1.71901e+7 
        6338.24      1.71057e+7 
        6353.24      1.70207e+7 
        6368.24      1.69348e+7 
        6383.23      1.68474e+7 
        6398.23       1.6758e+7 
        6413.22      1.66655e+7 
        6428.22      1.65684e+7 
        6443.22      1.64643e+7 
        6458.21       1.6349e+7 
        6473.21      1.62154e+7 
         6488.2      1.60497e+7 
         6503.2      1.58229e+7 
         6518.2      1.54666e+7 
        6532.67      1.48292e+7 
        6543.19      1.39014e+7 
        6553.87      1.17581e+7 
        6564.04      8.67614e+6 
        6574.47       1.2415e+7 
        6584.73      1.39729e+7 
        6595.59      1.46879e+7 
         6608.5      1.50775e+7 
        6618.82      1.52279e+7 
        6629.14      1.53059e+7 
        6639.46      1.53419e+7 
        6649.78      1.53522e+7 
        6670.42      1.53289e+7 
        6691.06      1.52742e+7 
        6711.48      1.52044e+7 
         6752.3      1.50436e+7 
        6824.78      1.47331e+7 
        6897.26      1.44184e+7 
        6969.74      1.41059e+7 
        7042.22      1.37984e+7 
        7109.15      1.35195e+7 
        7176.07       1.3248e+7 
           7243      1.29817e+7 
        7309.93      1.27207e+7 
        7360.21      1.25282e+7 
        7376.86      1.24667e+7 
        7393.51      1.24038e+7 
        7426.82        1.228e+7 
        7493.43      1.20363e+7 
        7560.04      1.17976e+7 
        7575.42      1.17432e+7 
        7626.65      1.15638e+7 
        7677.88      1.13873e+7 
        7729.11      1.12151e+7 
        7780.35      1.10456e+7 
        7831.58      1.08788e+7 
        7882.81      1.07147e+7 
        7905.84      1.06417e+7 
        7934.04      1.05532e+7 
        7962.25      1.04654e+7 
        8018.66      1.02931e+7 
         8067.6      1.01461e+7 
        8082.55      1.01016e+7 
         8097.5      1.00575e+7 
         8127.4      9.96994e+6 
        8171.58      9.84208e+6 
        8187.21      9.79721e+6 
        8200.85      9.75829e+6 
        8216.85      9.71299e+6 
        8232.84      9.66797e+6 
        8264.83      9.57859e+6 
        8289.72      9.50966e+6 
        8328.82      9.40247e+6 
        8343.44      9.36273e+6 
        8367.92       9.2966e+6 
        8388.68      9.24115e+6 
        8408.65      9.18818e+6 
        8432.02      9.12658e+6 
        8467.25      9.03456e+6 
        8502.48      8.94355e+6 
        8516.58      8.90755e+6 
        8530.98      8.87082e+6 
        8545.38      8.83425e+6 
        8574.18       8.7625e+6 
        8598.39      8.70177e+6 
         8628.6      8.62813e+6 
        8646.81      8.58359e+6 
        8665.01      8.53791e+6 
        8685.59      8.48975e+6 
        8701.43      8.45176e+6 
        8750.47       8.3316e+6 
        8767.92      8.29384e+6 
        8815.35      8.18353e+6 
        8862.78      8.06761e+6 
        8900.38      7.99215e+6 
        8957.65      7.86561e+6 
        8986.28      7.80174e+6 
        9000.59      7.76806e+6 
        9014.91      7.72031e+6 
        9029.22      7.70655e+6 
        9043.54      7.67881e+6 
        9057.85      7.64956e+6 
        9072.17      7.61996e+6 
        9086.49      7.59021e+6 
        9099.72      7.56263e+6 
        9126.18        7.508e+6 
        9154.15      7.44988e+6 
         9179.1      7.39701e+6 
        9191.58      7.36977e+6 
        9204.06      7.34131e+6 
        9216.53      7.30873e+6 
        9228.96      7.24731e+6 
        9241.76      7.25846e+6 
        9254.55      7.24043e+6 
        9267.35      7.21891e+6 
        9280.15      7.19619e+6 
        9292.94      7.17279e+6 
        9318.53      7.12507e+6 
        9355.36      7.05529e+6 
        9369.72      7.02799e+6 
        9384.08      7.00069e+6 
        9412.81      6.94641e+6 
        9470.26      6.83601e+6 
        9509.47      6.75254e+6 
        9527.72      6.70221e+6 
         9541.4      6.63187e+6 
        9551.67      6.61952e+6 
        9561.93      6.63407e+6 
        9589.31      6.61158e+6 
        9607.56      6.58629e+6 
        9625.81      6.55798e+6 
        9656.17      6.50822e+6 
        9668.45       6.4877e+6 
        9680.73      6.46716e+6 
         9705.3        6.426e+6 
        9754.43      6.34382e+6 
         9852.7      6.18159e+6 
        9949.12      6.02017e+6 
        9963.92      5.99388e+6 
        9978.72      5.96626e+6 
        9998.07      5.92643e+6 
        10008.3      5.90176e+6 
        10018.6      5.87358e+6 
        10028.8      5.83786e+6 
        10039.1      5.78289e+6 
        10049.4      5.61255e+6 
        10063.5      5.75888e+6 
        10078.9       5.7751e+6 
        10089.1      5.77425e+6 
        10099.4       5.7691e+6 
        10119.9      5.75037e+6 
        10160.9      5.70004e+6 
          10202      5.64393e+6 
        10237.2      5.59452e+6 
        10307.6      5.49725e+6 
          10378      5.40115e+6 
        10448.5       5.3064e+6 
        10518.9      5.21366e+6 
        10589.3      5.12268e+6 
        10659.8      5.03299e+6 
        10730.2      4.94402e+6 
        10800.6       4.8532e+6 
        10837.6      4.80161e+6 
        10854.3       4.7755e+6 
        10871.1      4.74572e+6 
        10887.8      4.70937e+6 
        10904.6      4.65848e+6 
        10917.1       4.5986e+6 
        10927.6      4.50687e+6 
          10938       4.1835e+6 
        10950.8      4.48773e+6 
        10966.8      4.56241e+6 
          10986      4.58792e+6 
        10998.8      4.58958e+6 
        11011.6      4.58597e+6 
        11037.2      4.56923e+6 
        11062.8      4.54695e+6 
          11114      4.49596e+6 
        11165.2      4.44231e+6 
        11216.4      4.38818e+6 
        11260.9      4.34124e+6 
          11350      4.25158e+6 
        11439.1      4.16406e+6 
        11528.2       4.0782e+6 
        11617.3      3.99432e+6 
        11706.4      3.91245e+6 
        11795.5      3.83249e+6 
        11884.6      3.75442e+6 
        11973.7      3.67821e+6 
        12062.8      3.60347e+6 
        12151.9      3.53068e+6 
        12197.3      3.49417e+6 
          12241      3.45952e+6 
        12284.6      3.42522e+6 
        12371.9      3.35987e+6 
        12459.2      3.29544e+6 
        12546.5      3.23132e+6 
        12590.2      3.19868e+6 
        12633.8      3.16481e+6 
        12677.4      3.12761e+6 
        12699.3      3.10635e+6 
        12721.1      3.08124e+6 
        12742.9      3.04931e+6 
        12753.8      3.02851e+6 
        12764.7      3.00269e+6 
        12775.6      2.96807e+6 
        12786.6      2.92009e+6 
        12797.5      2.84451e+6 
        12808.4      2.69868e+6 
        12818.6      2.31804e+6 
        12830.6      2.70781e+6 
        12841.4      2.81732e+6 
        12854.5       2.8837e+6 
        12867.5       2.9188e+6 
        12884.9      2.94118e+6 
        12902.2      2.94993e+6 
        12919.6      2.95136e+6 
          12937      2.94862e+6 
        12971.8      2.93635e+6 
        13006.5      2.91971e+6 
          13076       2.8814e+6 
        13145.6      2.84098e+6 
        13215.1      2.80023e+6 
        13260.8      2.77363e+6 
        13284.6      2.75989e+6 
        13308.4       2.7462e+6 
        13355.9      2.71996e+6 
        13450.9      2.66816e+6 
        13545.9      2.61734e+6 
          13641       2.5678e+6 
