# Koester WD models
# teff = 7750 K (value for the effective temperature for the model. Temperatures are given in K)
# logg = 8.5 log(cm/s2) (value for Log(G) for the model.)
#
# column 1: WAVELENGTH (ANGSTROM), Wavelength in Angstrom
# column 2: FLUX (ERG/CM2/S/A), Flux in erg/cm2/s/A
         899.23         5.90227 
        909.241         7.57234 
        919.251         14.5014 
        929.261         23.9042 
        939.271         56.8814 
         949.28         20.9012 
        959.289         134.029 
        969.297         125.887 
        979.305         204.918 
        989.312         285.057 
        999.319         362.109 
        1009.33         425.321 
        1019.33         383.372 
        1029.34          405.68 
        1039.34         733.417 
        1049.35         942.252 
        1059.36          1115.9 
        1069.36         1341.01 
        1079.36         1564.55 
        1089.37         1826.57 
        1099.37          2106.2 
        1109.38         2392.78 
        1119.38         2762.83 
        1129.38         3145.11 
        1139.39         3496.88 
        1149.39         3777.99 
        1159.39         3890.33 
        1169.39          3851.5 
         1179.4         3669.88 
         1189.4         3741.54 
         1199.4         3982.69 
         1209.4         3604.22 
        1219.41         3749.11 
        1229.41         6254.22 
        1239.41         7488.36 
        1249.41         8526.66 
        1259.41         9743.74 
        1269.41         11390.5 
        1279.42         13341.7 
        1289.42         15198.8 
        1299.42           17166 
        1309.42         19213.7 
        1319.42         21270.2 
        1329.42         23715.6 
        1339.42         26125.4 
        1349.42         28698.5 
        1359.42         31643.1 
        1369.42         34672.8 
        1379.42         37687.2 
        1389.42         41090.5 
        1399.42         45108.9 
        1409.42         49038.1 
        1419.42         52615.4 
        1429.42           56548 
        1439.42         61384.2 
        1451.92         68622.4 
        1464.42         74984.5 
        1476.35         79970.8 
        1487.11         85540.2 
        1499.42         93076.9 
        1509.42          101036 
        1524.42          113974 
        1536.92          123856 
        1549.42          130158 
        1559.42          134531 
        1570.19          141332 
        1584.41          150865 
        1599.41          163394 
        1611.91          178094 
        1624.41          199147 
        1636.91          227933 
        1649.41          266836 
        1661.91          322230 
        1673.25          391122 
         1683.9          487176 
         1694.4          661186 
         1706.4          999636 
         1716.9      1.37212e+6 
         1729.4      1.85789e+6 
         1741.9      2.33534e+6 
        1753.14      2.69219e+6 
        1764.39      2.94352e+6 
        1775.55      3.18504e+6 
        1785.64      3.52141e+6 
        1796.89      3.86595e+6 
        1814.38      4.31941e+6 
           1834      4.85992e+6 
        1846.32      5.21083e+6 
        1856.32      5.68691e+6 
        1866.33      6.07549e+6 
        1877.77      6.44837e+6 
        1893.03      6.97267e+6 
        1908.28       7.5199e+6 
        1919.37       7.9318e+6 
        1930.46       8.3687e+6 
        1940.51      9.11766e+6 
        1950.56      9.70403e+6 
        1963.38      1.02015e+7 
        1979.02      1.08242e+7 
        1999.87      1.16789e+7 
        2013.33      1.22447e+7 
        2024.54      1.29097e+7 
        2034.64      1.35018e+7 
        2044.73       1.3914e+7 
        2055.95      1.43743e+7 
        2067.03      1.48313e+7 
        2080.23      1.53824e+7 
           2097       1.6087e+7 
        2116.25      1.69057e+7 
        2128.29      1.74169e+7 
        2140.32      1.82024e+7 
        2154.77      1.87819e+7 
        2165.47      1.92102e+7 
        2180.57      1.98031e+7 
        2197.82      2.04792e+7 
         2214.7      2.11389e+7 
        2232.96      2.18326e+7 
        2248.43      2.24161e+7 
        2260.04       2.2873e+7 
        2271.65       2.3571e+7 
        2287.13      2.41493e+7 
        2302.61      2.47243e+7 
        2313.13      2.51137e+7 
        2334.18      2.58231e+7 
        2348.09       2.6287e+7 
        2362.35      2.67578e+7 
        2376.62      2.72121e+7 
        2401.02       2.7975e+7 
        2417.53      2.84791e+7 
        2434.03      2.90991e+7 
        2444.87      2.93965e+7 
        2456.19      2.97025e+7 
        2466.76      2.99933e+7 
        2488.39      3.05684e+7 
        2510.01      3.11608e+7 
         2547.3      3.20477e+7 
        2559.23       3.2321e+7 
        2571.17      3.25984e+7 
        2595.04      3.31381e+7 
        2627.89      3.39342e+7 
        2642.78      3.42201e+7 
        2657.67      3.44991e+7 
        2678.36      3.48396e+7 
        2717.24      3.54419e+7 
        2756.11      3.59957e+7 
        2794.98       3.6494e+7 
        2813.16      3.67114e+7 
        2833.85      3.69546e+7 
        2854.55      3.71961e+7 
        2895.93      3.75606e+7 
        2921.65      3.77645e+7 
        2937.32      3.78804e+7 
        2952.98      3.79903e+7 
        2984.31      3.81791e+7 
        3042.53      3.84685e+7 
        3060.31      3.85407e+7 
         3077.5      3.86039e+7 
        3113.68      3.87195e+7 
        3149.86       3.8805e+7 
        3196.14      3.88527e+7 
        3222.22      3.88631e+7 
        3248.29      3.88621e+7 
        3300.45      3.88087e+7 
        3346.73      3.87274e+7 
        3433.42       3.8492e+7 
        3445.17      3.84528e+7 
        3456.92      3.84113e+7 
        3480.41      3.83243e+7 
        3511.22      3.81955e+7 
        3527.41      3.81245e+7 
         3543.6      3.80507e+7 
        3560.69      3.79696e+7 
        3575.99      3.78948e+7 
        3591.28      3.78169e+7 
        3604.78      3.77462e+7 
        3621.87      3.76558e+7 
        3635.88      3.75794e+7 
        3647.12      3.75153e+7 
        3658.96      3.74487e+7 
        3671.11       3.7378e+7 
        3682.58      3.73111e+7 
         3693.5       3.7247e+7 
        3703.57      3.71826e+7 
        3713.83      3.71248e+7 
        3724.38      3.70629e+7 
        3734.43       3.6942e+7 
        3744.62      3.69533e+7 
        3754.84      3.68986e+7 
        3765.07      3.68367e+7 
         3775.5      3.67906e+7 
        3786.22      3.67767e+7 
        3796.45      3.62147e+7 
        3806.86      3.67299e+7 
        3817.36      3.67588e+7 
        3827.86      3.64396e+7 
        3837.97      3.57303e+7 
        3848.91      3.67507e+7 
        3862.01      3.68933e+7 
        3872.59      3.66143e+7 
        3883.67      3.52295e+7 
        3893.69      3.48676e+7 
        3903.89       3.6526e+7 
        3918.89      3.70906e+7 
        3929.56      3.71189e+7 
        3940.04      3.69574e+7 
        3950.65      3.63925e+7 
        3961.37      3.45453e+7 
        3971.57      2.89849e+7 
        3982.23      3.52091e+7 
        3992.62       3.6477e+7 
        4003.87      3.69291e+7 
        4018.86      3.70485e+7 
        4032.38      3.70177e+7 
        4043.86      3.69363e+7 
        4058.85      3.67057e+7 
        4073.85      3.60978e+7 
        4085.65      3.47256e+7 
        4096.17      3.04192e+7 
         4106.3      2.89798e+7 
        4116.69      3.41661e+7 
        4127.38       3.5576e+7 
        4138.83      3.60664e+7 
           4151       3.6226e+7 
        4163.83      3.62336e+7 
        4178.82      3.61685e+7 
        4193.82      3.60743e+7 
        4208.81      3.59646e+7 
         4221.1      3.58676e+7 
        4233.81      3.57595e+7 
         4248.8      3.56203e+7 
         4263.8      3.54551e+7 
         4278.8      3.52389e+7 
        4293.79      3.49084e+7 
        4308.79      3.42688e+7 
        4320.85      3.30153e+7 
        4331.09      2.98541e+7 
        4341.19      1.60265e+7 
        4351.76      3.04513e+7 
        4363.38      3.30788e+7 
        4373.77       3.3807e+7 
        4388.77      3.41409e+7 
        4403.76      3.41975e+7 
        4418.76      3.41497e+7 
        4433.75      3.40567e+7 
        4448.75      3.39433e+7 
        4463.75      3.38211e+7 
        4478.74      3.36942e+7 
        4493.74      3.35648e+7 
        4508.73      3.34699e+7 
        4523.35      3.33395e+7 
        4533.35      3.32497e+7 
        4543.73      3.31561e+7 
        4558.72        3.302e+7 
        4573.72      3.28837e+7 
        4588.71      3.27467e+7 
        4600.89      3.26352e+7 
        4613.71      3.25177e+7 
         4628.7      3.23795e+7 
         4643.7      3.22406e+7 
        4658.69      3.21011e+7 
        4673.69      3.19604e+7 
        4688.69      3.18181e+7 
        4703.68      3.16739e+7 
         4715.6       3.1557e+7 
        4728.68      3.14257e+7 
        4743.67      3.12691e+7 
        4758.67      3.11023e+7 
        4773.66      3.09173e+7 
        4788.66      3.06988e+7 
        4803.66      3.04082e+7 
        4818.65      2.99548e+7 
        4831.15      2.92479e+7 
        4842.27      2.78749e+7 
        4852.58      2.43153e+7 
        4862.63      1.46762e+7 
        4873.36      2.56597e+7 
        4884.32      2.80986e+7 
        4896.24      2.89797e+7 
        4906.75      2.92758e+7 
        4918.24      2.93985e+7 
        4928.62      2.94241e+7 
        4943.62       2.9388e+7 
        4958.61      2.93094e+7 
        4973.61      2.92096e+7 
        4988.61       2.9098e+7 
         5003.6      2.89797e+7 
         5018.6      2.88571e+7 
         5033.6       2.8732e+7 
        5048.59      2.86053e+7 
        5063.59      2.84778e+7 
        5078.58      2.83497e+7 
        5093.58      2.82214e+7 
        5108.57       2.8093e+7 
        5123.57      2.79647e+7 
        5138.57      2.78366e+7 
        5153.56      2.77086e+7 
        5168.56       2.7581e+7 
        5183.56      2.74536e+7 
        5198.55      2.73265e+7 
        5213.55      2.71998e+7 
        5228.54      2.70734e+7 
        5243.54      2.69473e+7 
        5258.53      2.68217e+7 
        5273.53      2.66965e+7 
        5288.53      2.65717e+7 
        5303.52      2.64472e+7 
        5318.52      2.63232e+7 
        5333.52      2.61997e+7 
        5348.51      2.60765e+7 
        5363.51      2.59556e+7 
         5378.5      2.58333e+7 
         5393.5      2.57113e+7 
        5408.49      2.55898e+7 
        5423.49      2.54687e+7 
        5438.49      2.53481e+7 
        5453.48       2.5228e+7 
        5468.48      2.51083e+7 
        5483.48      2.49892e+7 
        5498.47      2.48704e+7 
        5513.47      2.47522e+7 
        5528.46      2.46345e+7 
        5543.46      2.45172e+7 
        5558.45      2.44004e+7 
        5573.45       2.4284e+7 
        5588.45      2.41682e+7 
        5603.44      2.40528e+7 
        5618.44      2.39379e+7 
        5633.43      2.38235e+7 
        5648.43      2.37096e+7 
        5663.43      2.35962e+7 
        5673.98      2.35203e+7 
         5686.2      2.34284e+7 
        5698.42      2.33368e+7 
        5708.88      2.32586e+7 
        5723.41      2.31505e+7 
        5738.41      2.30393e+7 
         5753.4      2.29286e+7 
         5768.4       2.2812e+7 
        5783.39      2.27021e+7 
        5798.39      2.25927e+7 
        5813.39      2.24837e+7 
        5828.38      2.23752e+7 
        5843.38      2.22671e+7 
        5858.37      2.21596e+7 
        5873.37      2.20524e+7 
        5888.37      2.19458e+7 
        5903.36      2.18397e+7 
        5918.36       2.1734e+7 
        5933.35      2.16287e+7 
        5948.35       2.1524e+7 
        5963.35      2.14197e+7 
        5978.34      2.13158e+7 
        5993.34      2.12124e+7 
        6008.33      2.11094e+7 
        6023.33      2.10068e+7 
        6038.32      2.09046e+7 
        6053.32      2.08029e+7 
        6068.32      2.07016e+7 
        6083.31      2.06007e+7 
        6098.31      2.05002e+7 
        6113.31      2.04002e+7 
         6128.3      2.03004e+7 
         6143.3      2.02011e+7 
        6158.29      2.01021e+7 
        6173.29      2.00034e+7 
        6188.28       1.9905e+7 
        6203.28      1.98069e+7 
        6218.28       1.9709e+7 
        6233.27      1.96113e+7 
        6244.38       1.9539e+7 
        6256.04      1.94632e+7 
        6266.59      1.93947e+7 
        6278.26      1.93187e+7 
        6290.52      1.92389e+7 
        6302.31       1.9162e+7 
        6312.59      1.90948e+7 
        6323.25      1.90248e+7 
        6338.24      1.89257e+7 
        6353.24      1.88256e+7 
        6368.24       1.8724e+7 
        6383.23      1.86203e+7 
        6398.23      1.85135e+7 
        6413.22      1.84021e+7 
        6428.22       1.8284e+7 
        6443.22      1.81556e+7 
        6458.21      1.80114e+7 
        6473.21      1.78413e+7 
         6488.2      1.76271e+7 
         6503.2       1.7331e+7 
         6518.2      1.68722e+7 
        6530.43       1.6241e+7 
        6541.53      1.51877e+7 
        6551.59      1.32741e+7 
        6561.85      9.42701e+6 
        6572.47      1.27237e+7 
        6583.18      1.48626e+7 
        6593.31      1.57977e+7 
        6603.34      1.62785e+7 
        6613.66      1.65538e+7 
        6623.98      1.67115e+7 
        6639.46      1.68248e+7 
        6649.78       1.6853e+7 
         6660.1      1.68585e+7 
        6680.74      1.68281e+7 
         6691.3       1.6799e+7 
        6701.39      1.67658e+7 
        6711.48      1.67286e+7 
        6731.66      1.66462e+7 
        6772.02       1.6463e+7 
        6824.78      1.62078e+7 
        6877.54      1.59489e+7 
         6930.3      1.56899e+7 
        6983.06      1.54331e+7 
        7035.82      1.51793e+7 
        7068.02      1.50261e+7 
        7088.58       1.4929e+7 
        7109.15      1.48325e+7 
        7150.27      1.46427e+7 
        7232.53      1.42701e+7 
        7314.78      1.39071e+7 
        7393.51      1.35707e+7 
        7472.25      1.32428e+7 
        7550.98      1.29232e+7 
        7581.55      1.28014e+7 
        7629.72      1.26119e+7 
        7677.88      1.24255e+7 
        7774.21      1.20641e+7 
        7870.55      1.17141e+7 
        7962.25      1.13912e+7 
        8025.35      1.11757e+7 
        8053.95      1.10795e+7 
        8082.55      1.09843e+7 
        8139.75      1.07971e+7 
        8191.03      1.06321e+7 
        8202.85      1.05945e+7 
        8216.85      1.05503e+7 
        8232.84      1.05001e+7 
        8264.83      1.04004e+7 
        8289.72      1.03236e+7 
        8328.82      1.02041e+7 
        8343.44      1.01598e+7 
        8367.92      1.00862e+7 
        8388.68      1.00245e+7 
        8408.65      9.96551e+6 
        8432.02      9.89696e+6 
        8467.25      9.79461e+6 
        8502.48      9.69342e+6 
        8516.58      9.65336e+6 
        8530.98      9.61252e+6 
        8545.38      9.57202e+6 
        8574.18      9.49213e+6 
        8598.39      9.42494e+6 
         8628.6      9.34285e+6 
        8646.81      9.29337e+6 
        8665.01      9.24326e+6 
        8685.59      9.18922e+6 
        8701.43      9.14709e+6 
        8750.47      9.01499e+6 
        8767.92      8.97195e+6 
        8815.35       8.8498e+6 
        8862.78      8.72392e+6 
        8900.38      8.63778e+6 
        8957.65      8.49776e+6 
        9014.91      8.34284e+6 
        9044.62      8.28884e+6 
        9072.17      8.22607e+6 
        9099.72      8.16261e+6 
        9154.81       8.0366e+6 
         9190.8      7.95197e+6 
         9209.9      7.90318e+6 
        9224.23        7.852e+6 
        9238.56      7.83073e+6 
        9257.67      7.80193e+6 
        9276.77      7.76517e+6 
        9314.99      7.68732e+6 
        9384.08      7.54284e+6 
        9453.18      7.39767e+6 
         9498.6      7.29629e+6 
        9510.44      7.26647e+6 
        9522.28      7.23261e+6 
        9534.12      7.18856e+6 
        9544.48      7.11062e+6 
        9554.85      7.13553e+6 
        9568.17      7.13723e+6 
        9580.01      7.12611e+6 
        9603.69      7.09243e+6 
        9627.38      7.05269e+6 
        9651.06      7.01056e+6 
        9668.45      6.97895e+6 
        9703.23      6.91543e+6 
        9772.79       6.7882e+6 
        9842.35       6.6619e+6 
           9871      6.61026e+6 
        9911.91      6.53502e+6 
        9952.82      6.45666e+6 
        9973.27       6.4151e+6 
        9993.73      6.36901e+6 
        10014.2      6.31385e+6 
        10027.3      6.26751e+6 
        10038.3      6.20813e+6 
        10048.4      6.06428e+6 
        10058.6      6.15793e+6 
        10069.6       6.1851e+6 
        10091.7      6.18953e+6 
        10106.4      6.17989e+6 
        10121.1      6.16531e+6 
        10150.6      6.12824e+6 
        10181.8      6.08413e+6 
        10209.5      6.04298e+6 
        10237.2      6.00101e+6 
        10292.6      5.91782e+6 
          10348      5.83497e+6 
        10403.4       5.7531e+6 
        10458.7      5.67186e+6 
        10514.1      5.59219e+6 
        10569.5      5.51387e+6 
        10624.9      5.43621e+6 
        10680.3      5.35918e+6 
        10735.7       5.2819e+6 
        10791.1      5.20213e+6 
        10818.8      5.15978e+6 
        10846.5       5.1126e+6 
        10860.3       5.0864e+6 
        10874.1      5.05602e+6 
          10888      5.02008e+6 
        10901.8      4.97295e+6 
        10915.7      4.90478e+6 
        10926.1      4.81559e+6 
        10936.5      4.56197e+6 
          10947      4.73215e+6 
          10960      4.83149e+6 
          10973      4.87019e+6 
          10986      4.88662e+6 
          10999      4.89093e+6 
          11012      4.88948e+6 
          11038      4.87453e+6 
          11064      4.85232e+6 
        11115.9      4.79891e+6 
        11167.9      4.74101e+6 
        11178.8      4.72866e+6 
        11219.9      4.68204e+6 
        11260.9      4.63542e+6 
          11343      4.54573e+6 
        11425.1      4.45761e+6 
        11507.2      4.37165e+6 
        11589.2      4.28717e+6 
        11671.3      4.20455e+6 
        11753.4      4.12378e+6 
        11835.5      4.04477e+6 
        11917.6      3.96755e+6 
        11999.6      3.89206e+6 
        12081.7      3.81769e+6 
        12163.8      3.74531e+6 
        12207.2      3.70771e+6 
        12245.9      3.67447e+6 
        12284.6      3.64148e+6 
        12362.1      3.57827e+6 
        12439.6      3.51579e+6 
        12517.1      3.45333e+6 
        12594.5      3.38909e+6 
        12633.3      3.35478e+6 
          12672      3.31661e+6 
        12691.4      3.29493e+6 
        12710.7      3.27012e+6 
        12730.1      3.23992e+6 
        12749.5      3.20113e+6 
        12768.8      3.14561e+6 
        12783.4      3.08175e+6 
        12797.9      2.97454e+6 
        12808.8       2.8133e+6 
        12818.8      2.48186e+6 
          12830      2.82068e+6 
        12842.8       2.9577e+6 
        12858.8      3.03944e+6 
        12871.6      3.07409e+6 
        12890.8      3.10117e+6 
        12903.6      3.10959e+6 
        12916.4      3.11359e+6 
        12929.2      3.11462e+6 
        12954.8       3.1103e+6 
        12980.4      3.10126e+6 
        13031.6      3.07595e+6 
        13082.7      3.04642e+6 
        13133.9      3.01517e+6 
        13185.1      2.98331e+6 
        13236.3      2.95135e+6 
        13266.6      2.93243e+6 
        13287.5      2.91945e+6 
        13308.4      2.90651e+6 
        13350.1      2.88152e+6 
        13433.5       2.8321e+6 
          13517      2.78356e+6 
        13600.4      2.73616e+6 
        13683.9      2.68996e+6 
        13767.3      2.64422e+6 
        13850.8      2.59936e+6 
        13934.2      2.55537e+6 
