# Koester WD models
# teff = 7000 K (value for the effective temperature for the model. Temperatures are given in K)
# logg = 8.75 log(cm/s2) (value for Log(G) for the model.)
#
# column 1: WAVELENGTH (ANGSTROM), Wavelength in Angstrom
# column 2: FLUX (ERG/CM2/S/A), Flux in erg/cm2/s/A
         899.23          1.1792 
        909.241         1.53988 
        919.251         2.09953 
        929.261         2.86912 
        939.271         4.60909 
         949.28         4.21284 
        959.289         10.3718 
        969.297         13.5309 
        979.305         19.9535 
        989.312         27.0263 
        999.319         35.0159 
        1009.33         43.7024 
        1019.33         47.1333 
        1029.34         52.4263 
        1039.34         81.6786 
        1049.35         100.321 
        1059.36         120.354 
        1069.36         143.469 
        1079.36         170.302 
        1089.37         200.252 
        1099.37         235.352 
        1109.38         273.788 
        1119.38         321.778 
        1129.38         374.305 
        1139.39         428.827 
        1149.39         482.128 
        1159.39         520.644 
        1169.39         536.782 
         1179.4          532.77 
         1189.4         572.106 
         1199.4         635.814 
         1209.4         653.263 
        1219.41         720.901 
        1229.41         1007.84 
        1239.41         1195.34 
        1249.41         1374.91 
        1259.41          1582.3 
        1269.41         1862.89 
        1279.42         2199.75 
        1289.42          2535.1 
        1299.42         2890.36 
        1309.42         3273.57 
        1319.42         3669.76 
        1329.42         4136.38 
        1339.42         4610.95 
        1349.42         5126.77 
        1359.42         5723.23 
        1369.42         6338.85 
        1379.42         6979.55 
        1389.42         7703.88 
        1399.42         8533.16 
        1409.42         9375.86 
        1419.42         10221.5 
        1429.42         11137.6 
        1439.42         12184.3 
        1454.42         14023.8 
        1464.42           15269 
        1476.35         16639.5 
        1487.11         18011.7 
        1499.42         19766.3 
        1509.42           21569 
        1524.42         24618.9 
        1536.92         27188.4 
        1549.42         29216.7 
        1559.42         30630.1 
        1570.19         32487.5 
        1584.41         35228.6 
        1599.41         38668.9 
        1611.91         42516.4 
        1624.41         47853.7 
        1639.41         56495.9 
        1654.41         67576.3 
        1665.56         77491.8 
        1676.33         88115.4 
         1686.9          100218 
         1699.4          118148 
         1714.4          141953 
         1729.4          168770 
         1744.4          196266 
        1759.39          220250 
         1771.7          239764 
        1781.89          259245 
        1794.39          288033 
        1809.39          320914 
           1824          356030 
        1834.77          383893 
        1845.54          412554 
         1856.3          449700 
        1867.07          485470 
        1882.44          539273 
        1894.73          587651 
        1907.03          639867 
        1919.18          695473 
        1931.21          752078 
        1943.24          833637 
        1953.39          905831 
        1963.92          965386 
        1977.94      1.04914e+6 
        1996.63      1.16956e+6 
        2012.85      1.28281e+6 
        2025.25      1.39358e+6 
        2037.66      1.50232e+6 
        2052.54      1.62178e+6 
        2067.03      1.74405e+6 
        2081.53      1.87689e+6 
        2096.02      2.01768e+6 
        2110.51        2.167e+6 
        2121.99      2.29225e+6 
        2133.48      2.44022e+6 
        2144.96      2.60006e+6 
         2158.9      2.77028e+6 
        2172.05      2.93371e+6 
        2185.19       3.0995e+6 
        2198.34      3.27159e+6 
        2211.48      3.45016e+6 
        2233.97      3.74418e+6 
        2255.43      4.03148e+6 
        2268.16        4.278e+6 
        2285.12      4.59043e+6 
        2302.08      4.91257e+6 
        2313.13      5.14097e+6 
        2324.19      5.33552e+6 
        2335.24      5.53941e+6 
        2346.29      5.75672e+6 
        2357.34      5.97902e+6 
        2372.38      6.29406e+6 
        2392.44      6.72772e+6 
        2409.27      7.12504e+6 
         2421.9      7.44548e+6 
        2434.53      7.80177e+6 
        2446.54       8.1022e+6 
        2460.79      8.48217e+6 
        2474.59      8.85998e+6 
        2492.99      9.36748e+6 
        2510.01      9.84085e+6 
        2527.04      1.02742e+7 
        2544.07      1.07066e+7 
        2559.23      1.10902e+7 
         2574.4      1.15214e+7 
        2589.56      1.19532e+7 
        2604.73      1.24157e+7 
        2619.89      1.28645e+7 
        2635.06      1.32828e+7 
        2650.22      1.36994e+7 
        2665.11      1.40661e+7 
        2678.36      1.43532e+7 
        2717.23      1.51713e+7 
        2756.11       1.5952e+7 
        2794.99      1.66935e+7 
        2813.18      1.70272e+7 
        2833.86      1.73988e+7 
        2854.55      1.77623e+7 
        2895.92      1.84339e+7 
        2921.59      1.88317e+7 
        2937.29      1.90678e+7 
        2952.98       1.9299e+7 
        2980.12      1.96488e+7 
        3015.77      2.00878e+7 
        3051.42      2.05013e+7 
        3095.58      2.09938e+7 
        3122.72      2.12806e+7 
        3149.86      2.15487e+7 
        3159.97      2.16427e+7 
        3204.13      2.20338e+7 
        3226.21      2.22178e+7 
        3248.29      2.23942e+7 
        3270.37      2.25159e+7 
        3292.45      2.26308e+7 
        3314.53      2.27392e+7 
         3326.5      2.27953e+7 
        3336.62      2.28413e+7 
        3346.73       2.2886e+7 
        3366.96      2.29686e+7 
        3407.42      2.31191e+7 
        3445.17      2.32426e+7 
        3497.73      2.33764e+7 
        3520.67      2.34248e+7 
         3543.6      2.34682e+7 
        3587.66      2.35319e+7 
        3602.15      2.35478e+7 
        3616.63      2.35621e+7 
        3635.88      2.35785e+7 
        3647.12      2.35853e+7 
        3658.96      2.35926e+7 
        3671.11      2.35981e+7 
        3682.58      2.36024e+7 
         3693.5      2.36055e+7 
        3703.57      2.36063e+7 
        3713.83      2.36081e+7 
        3724.38      2.36072e+7 
        3734.43       2.3593e+7 
        3744.62      2.36005e+7 
        3754.84      2.35961e+7 
        3765.07      2.35908e+7 
         3775.5      2.35852e+7 
        3786.22      2.35802e+7 
        3796.45      2.35423e+7 
        3807.84      2.35703e+7 
        3818.92      2.35649e+7 
        3830.45       2.3521e+7 
        3840.76      2.35264e+7 
        3851.98      2.35686e+7 
        3862.01      2.35711e+7 
        3872.59      2.35449e+7 
         3884.4      2.33197e+7 
        3894.46      2.33532e+7 
        3908.89      2.35793e+7 
        3923.89      2.36127e+7 
        3935.81      2.36034e+7 
        3946.58      2.35513e+7 
        3957.31       2.3364e+7 
        3967.38      2.22615e+7 
        3977.86      2.30419e+7 
        3988.87        2.347e+7 
        4003.87      2.35897e+7 
        4018.86      2.36056e+7 
        4032.38      2.35959e+7 
        4043.86      2.35765e+7 
        4058.85      2.35274e+7 
        4073.85      2.34058e+7 
         4085.7      2.30958e+7 
        4096.23      2.17684e+7 
        4106.54      2.14016e+7 
        4116.69      2.29167e+7 
        4128.84      2.32794e+7 
        4143.83      2.33704e+7 
        4158.83      2.33742e+7 
        4173.82      2.33525e+7 
        4188.82      2.33212e+7 
        4203.81      2.32846e+7 
        4216.52      2.32505e+7 
        4228.81      2.32151e+7 
        4243.81      2.31681e+7 
         4258.8      2.31153e+7 
         4273.8      2.30529e+7 
        4288.79      2.29693e+7 
        4303.79      2.28305e+7 
        4314.07      2.26378e+7 
        4326.14      2.19818e+7 
        4336.17      1.91806e+7 
         4346.3      1.98919e+7 
        4357.43      2.20388e+7 
        4367.98      2.24638e+7 
        4378.77      2.25881e+7 
        4393.77      2.26212e+7 
        4408.76      2.26017e+7 
        4423.76      2.25624e+7 
        4438.75      2.25143e+7 
        4453.75      2.24618e+7 
        4468.74      2.24068e+7 
        4483.74        2.235e+7 
        4498.74      2.22957e+7 
        4513.73      2.22382e+7 
        4527.19      2.21858e+7 
        4538.73      2.21403e+7 
        4553.72      2.20803e+7 
        4568.72      2.20195e+7 
        4583.72      2.19579e+7 
        4596.53      2.19046e+7 
        4608.71      2.18534e+7 
         4623.7      2.17895e+7 
         4638.7      2.17249e+7 
         4653.7      2.16595e+7 
        4668.69      2.15934e+7 
        4683.69      2.15263e+7 
        4698.68      2.14581e+7 
        4713.68      2.13884e+7 
        4724.83      2.13355e+7 
        4738.67      2.12679e+7 
        4753.67      2.11915e+7 
        4768.67      2.11096e+7 
        4783.66      2.10181e+7 
        4798.66      2.09072e+7 
        4813.65      2.07514e+7 
        4828.65      2.04666e+7 
        4839.16      2.00145e+7 
        4850.22       1.8611e+7 
        4860.28      1.14088e+7 
         4870.5      1.79435e+7 
        4882.01      1.96983e+7 
        4893.63      2.01603e+7 
        4908.63      2.03214e+7 
         4921.7      2.03437e+7 
        4933.62      2.03288e+7 
        4948.62      2.02883e+7 
        4963.61      2.02357e+7 
        4978.61      2.01767e+7 
        4993.61      2.01141e+7 
         5008.6       2.0049e+7 
         5023.6      1.99824e+7 
        5038.59      1.99149e+7 
        5053.59      1.98466e+7 
        5068.59      1.97778e+7 
        5083.58      1.97086e+7 
        5098.58       1.9639e+7 
        5113.57      1.95692e+7 
        5128.57      1.94996e+7 
        5143.57      1.94299e+7 
        5158.56      1.93601e+7 
        5173.56      1.92902e+7 
        5188.55      1.92202e+7 
        5203.55      1.91502e+7 
        5218.55      1.90802e+7 
        5233.54      1.90102e+7 
        5248.54      1.89401e+7 
        5263.53      1.88701e+7 
        5278.53      1.88002e+7 
        5293.52      1.87305e+7 
        5308.52      1.86607e+7 
        5323.52       1.8591e+7 
        5338.51      1.85213e+7 
        5353.51      1.84517e+7 
        5368.51      1.83832e+7 
         5383.5      1.83134e+7 
         5398.5      1.82436e+7 
        5413.49      1.81739e+7 
        5428.49      1.81043e+7 
        5443.48      1.80348e+7 
        5458.48      1.79654e+7 
        5473.48      1.78961e+7 
        5488.47       1.7827e+7 
        5503.47       1.7758e+7 
        5518.47      1.76891e+7 
        5533.46      1.76203e+7 
        5548.46      1.75517e+7 
        5563.45      1.74832e+7 
        5578.45      1.74147e+7 
        5593.44      1.73464e+7 
        5608.44      1.72782e+7 
        5623.44      1.72102e+7 
        5638.43      1.71423e+7 
        5653.43      1.70745e+7 
        5668.43      1.70105e+7 
        5682.86      1.69455e+7 
        5693.42       1.6898e+7 
        5704.77       1.6847e+7 
        5715.23      1.68001e+7 
        5728.41      1.67411e+7 
         5743.4      1.66742e+7 
         5758.4      1.66074e+7 
         5773.4      1.65361e+7 
        5788.39      1.64695e+7 
        5803.39       1.6403e+7 
        5818.39      1.63367e+7 
        5833.38      1.62706e+7 
        5848.38      1.62046e+7 
        5863.37      1.61388e+7 
        5878.37      1.60732e+7 
        5893.36      1.60077e+7 
        5908.36      1.59424e+7 
        5923.36      1.58772e+7 
        5938.35      1.58122e+7 
        5953.35      1.57474e+7 
        5968.34      1.56827e+7 
        5983.34      1.56182e+7 
        5998.34      1.55539e+7 
        6013.33      1.54897e+7 
        6028.33      1.54256e+7 
        6043.32      1.53617e+7 
        6058.32       1.5298e+7 
        6073.32      1.52344e+7 
        6088.31      1.51709e+7 
        6103.31      1.51077e+7 
         6118.3      1.50445e+7 
         6133.3      1.49815e+7 
         6148.3      1.49186e+7 
        6163.29      1.48558e+7 
        6178.29      1.47932e+7 
        6193.28      1.47306e+7 
        6208.28      1.46681e+7 
        6223.28      1.46056e+7 
        6238.27      1.45432e+7 
        6252.16      1.44853e+7 
        6262.16      1.44436e+7 
        6273.26      1.43973e+7 
        6284.63      1.43498e+7 
        6295.99      1.43022e+7 
        6306.09      1.42597e+7 
        6316.22      1.42169e+7 
        6328.25      1.41658e+7 
        6343.24      1.41017e+7 
        6358.24      1.40367e+7 
        6373.23      1.39705e+7 
        6388.23      1.39027e+7 
        6403.23      1.38326e+7 
        6418.22      1.37593e+7 
        6433.22       1.3681e+7 
        6448.22      1.35952e+7 
        6463.21      1.34975e+7 
        6478.21      1.33801e+7 
         6493.2      1.32275e+7 
         6508.2      1.30072e+7 
        6523.19      1.26413e+7 
        6537.09      1.19863e+7 
        6548.06      1.09052e+7 
        6558.19      8.51004e+6 
        6568.58        8.904e+6 
        6579.69      1.10895e+7 
        6590.04      1.19079e+7 
        6603.34      1.23914e+7 
        6613.66      1.25761e+7 
        6629.14      1.27112e+7 
        6639.46      1.27508e+7 
        6649.78      1.27676e+7 
        6670.42      1.27619e+7 
        6691.06      1.27274e+7 
        6711.48      1.26789e+7 
         6752.3      1.25615e+7 
        6824.78      1.23278e+7 
        6897.26      1.20872e+7 
        6969.74      1.18464e+7 
        7042.22      1.16081e+7 
        7109.15       1.1391e+7 
        7176.07       1.1179e+7 
           7243      1.09704e+7 
        7309.93      1.07652e+7 
        7360.21      1.06133e+7 
        7376.86      1.05653e+7 
        7393.51      1.05155e+7 
        7426.82      1.04176e+7 
        7493.43      1.02244e+7 
        7560.04      1.00346e+7 
        7575.42      9.99127e+6 
        7626.65      9.84826e+6 
        7677.88      9.70724e+6 
        7729.11      9.56939e+6 
        7780.35      9.43345e+6 
        7831.58      9.29946e+6 
        7882.81      9.16736e+6 
        7905.84      9.10861e+6 
        7934.04      9.03717e+6 
        7962.25      8.96629e+6 
        8018.66      8.82703e+6 
         8067.6      8.70796e+6 
        8082.55      8.67193e+6 
         8097.5      8.63618e+6 
         8127.4      8.56508e+6 
        8171.58      8.46119e+6 
        8187.21      8.42471e+6 
        8200.85      8.39305e+6 
        8216.85      8.35617e+6 
        8232.84       8.3195e+6 
        8264.83      8.24665e+6 
        8289.72      8.19045e+6 
        8328.82      8.10292e+6 
        8343.44      8.07044e+6 
        8367.92       8.0164e+6 
        8388.68      7.97104e+6 
        8408.65      7.92768e+6 
        8432.02      7.87723e+6 
        8467.25      7.80183e+6 
        8502.48      7.72719e+6 
        8516.58      7.69753e+6 
        8530.98      7.66737e+6 
        8545.38      7.63749e+6 
        8574.18      7.57821e+6 
        8598.39      7.52864e+6 
         8628.6      7.46741e+6 
        8646.81      7.43075e+6 
        8665.01      7.39408e+6 
        8685.59      7.35324e+6 
        8701.43      7.32183e+6 
        8750.47      7.22516e+6 
        8767.92      7.19155e+6 
        8815.35      7.10013e+6 
        8862.78      7.00993e+6 
        8900.38      6.94069e+6 
        8957.65      6.83548e+6 
        9014.91      6.73008e+6 
        9044.62       6.6789e+6 
        9072.17      6.63017e+6 
        9099.72      6.58183e+6 
        9154.81      6.48701e+6 
         9190.8      6.42566e+6 
         9209.9      6.39292e+6 
        9229.01      6.35642e+6 
        9267.22      6.29798e+6 
        9305.43       6.2355e+6 
        9379.63      6.11558e+6 
        9397.45      6.08731e+6 
        9415.28      6.05919e+6 
        9450.94       6.0033e+6 
        9498.52      5.92875e+6 
        9522.24      5.89036e+6 
        9545.97      5.84138e+6 
        9569.68      5.81845e+6 
        9593.41      5.78512e+6 
        9613.24      5.75634e+6 
        9640.85      5.71603e+6 
        9668.45      5.67579e+6 
        9723.66      5.59665e+6 
        9778.86      5.51858e+6 
        9834.07      5.44158e+6 
        9889.28      5.36559e+6 
        9936.15      5.30153e+6 
        9952.82      5.27872e+6 
        9969.49      5.25595e+6 
        9979.55      5.24206e+6 
        10002.8      5.20901e+6 
        10014.5      5.19132e+6 
        10026.1      5.17172e+6 
        10037.7      5.14763e+6 
        10049.4      5.10713e+6 
          10061      5.11734e+6 
        10072.6      5.11106e+6 
        10090.1      5.09447e+6 
        10113.4      5.06824e+6 
        10159.9      5.01213e+6 
        10237.2      4.91753e+6 
        10314.5      4.82602e+6 
        10391.8       4.7362e+6 
          10469      4.64802e+6 
        10546.3      4.56175e+6 
        10623.6      4.47715e+6 
        10700.9      4.39408e+6 
        10778.2      4.31202e+6 
        10816.8      4.27084e+6 
        10855.5      4.22824e+6 
        10874.8       4.2053e+6 
        10894.1      4.17929e+6 
        10913.4      4.14451e+6 
        10927.4      4.10213e+6 
        10937.4      4.04006e+6 
        10948.1      4.07769e+6 
        10964.1      4.09315e+6 
        10974.8       4.0924e+6 
        10996.1      4.08159e+6 
        11017.4      4.06582e+6 
        11060.1       4.0289e+6 
        11145.5      3.95027e+6 
        11200.7      3.89925e+6 
        11230.8       3.8717e+6 
        11260.9      3.84434e+6 
        11321.1      3.79197e+6 
        11381.2      3.74038e+6 
        11441.4      3.68971e+6 
        11501.6       3.6396e+6 
        11561.7      3.59027e+6 
        11621.9      3.54171e+6 
        11682.1      3.49389e+6 
        11742.2      3.44683e+6 
        11802.4      3.40049e+6 
        11862.6      3.35488e+6 
        11922.7      3.31008e+6 
        11982.9      3.26597e+6 
        12043.1       3.2223e+6 
        12103.2      3.17948e+6 
        12163.4      3.13731e+6 
        12223.6      3.09575e+6 
        12282.8       3.0554e+6 
        12297.2      3.04604e+6 
        12311.5      3.03675e+6 
        12340.3      3.01826e+6 
        12397.7      2.98161e+6 
        12455.1      2.94535e+6 
        12512.6      2.90939e+6 
          12570      2.87355e+6 
        12627.4      2.83735e+6 
        12684.9      2.79927e+6 
        12713.6      2.77798e+6 
        12742.3      2.75245e+6 
        12756.6      2.73607e+6 
          12771      2.71499e+6 
        12785.4       2.6839e+6 
        12796.1      2.64688e+6 
        12806.9      2.58429e+6 
        12817.1      2.46945e+6 
        12829.8      2.57265e+6 
        12841.8      2.62022e+6 
        12853.7      2.64281e+6 
        12869.7      2.65692e+6 
        12885.7      2.66145e+6 
        12901.6      2.66104e+6 
        12933.6      2.65261e+6 
        12965.5      2.63947e+6 
        13029.4      2.60847e+6 
        13093.3      2.57558e+6 
        13157.1      2.54238e+6 
          13221      2.50935e+6 
        13261.4      2.48863e+6 
        13284.9      2.47667e+6 
        13308.4      2.46475e+6 
        13355.3      2.44204e+6 
        13449.2      2.39724e+6 
          13543      2.35328e+6 
        13636.9      2.31036e+6 
        13730.8      2.26809e+6 
        13824.7       2.2267e+6 
        13918.6      2.18615e+6 
        14012.5      2.14644e+6 
        14106.3      2.10753e+6 
        14200.2      2.06942e+6 
        14256.1      2.04709e+6 
        14294.1      2.03208e+6 
        14332.1      2.01719e+6 
        14358.4      2.00711e+6 
          14408      1.98827e+6 
