# Koester WD models
# teff = 7000 K (value for the effective temperature for the model. Temperatures are given in K)
# logg = 8.25 log(cm/s2) (value for Log(G) for the model.)
#
# column 1: WAVELENGTH (ANGSTROM), Wavelength in Angstrom
# column 2: FLUX (ERG/CM2/S/A), Flux in erg/cm2/s/A
         899.23        0.899319 
        909.241         1.17789 
        919.251          1.8292 
        929.261         2.58222 
        939.271         4.08473 
         949.28         3.43074 
        959.289          9.5479 
        969.297         12.5312 
        979.305         18.4773 
        989.312          24.996 
        999.319         32.4558 
        1009.33         40.6714 
        1019.33         44.1579 
        1029.34         49.1832 
        1039.34         77.3699 
        1049.35         95.7375 
        1059.36          115.23 
        1069.36         137.936 
        1079.36         164.069 
        1089.37         193.412 
        1099.37         227.633 
        1109.38         265.125 
        1119.38         311.864 
        1129.38         363.058 
        1139.39         416.248 
        1149.39         468.484 
        1159.39         507.106 
        1169.39         524.272 
         1179.4         512.683 
         1189.4         539.785 
         1199.4         593.573 
         1209.4         586.871 
        1219.41         640.916 
        1229.41         960.055 
        1239.41         1151.95 
        1249.41         1329.67 
        1259.41         1534.94 
        1269.41         1817.62 
        1279.42         2152.86 
        1289.42         2482.45 
        1299.42         2830.81 
        1309.42         3206.47 
        1319.42         3594.55 
        1329.42          4051.9 
        1339.42         4516.26 
        1349.42         5022.72 
        1359.42          5606.3 
        1369.42         6209.01 
        1379.42          6839.4 
        1389.42         7549.75 
        1399.42         8361.73 
        1409.42         9188.44 
        1419.42         10020.3 
        1429.42         10921.8 
        1439.42         11949.5 
        1454.42         13752.7 
        1464.42         14976.7 
        1474.42           16123 
        1489.42           17996 
        1501.92         19800.1 
        1514.42         22188.4 
        1529.42         25162.7 
        1541.92         27608.7 
        1554.42         29380.1 
        1566.72         31307.3 
        1579.41         33641.7 
        1594.41         36704.8 
        1604.41         39299.1 
        1616.91         43689.5 
        1629.41         49621.8 
        1644.41         58849.3 
        1656.91         68502.4 
         1669.4         80323.9 
        1680.56         92678.6 
        1691.71          108873 
         1704.4          133964 
         1716.9          163245 
         1729.4          199510 
         1741.9          236990 
        1754.39          270211 
        1767.08          298470 
        1778.14          326631 
        1789.39          372266 
        1804.39          421583 
        1824.38          494094 
        1834.77          535111 
        1846.32          582637 
        1856.32          646665 
        1866.33          704568 
        1877.77          767268 
        1893.03          861019 
        1908.28          964918 
        1919.37      1.04715e+6 
        1929.76      1.12469e+6 
        1939.82      1.27249e+6 
        1949.88      1.40455e+6 
        1964.16      1.53595e+6 
        1977.44        1.666e+6 
        1995.16      1.85351e+6 
        2007.92      1.99849e+6 
        2019.05      2.13237e+6 
        2030.18       2.3572e+6 
        2041.42      2.49689e+6 
         2058.5      2.71921e+6 
        2075.57      2.95782e+6 
        2086.11      3.11317e+6 
        2101.18      3.34504e+6 
        2116.25      3.58798e+6 
        2127.56      3.77729e+6 
        2138.86      4.06029e+6 
        2149.94      4.25299e+6 
        2165.47      4.52465e+6 
        2181.01      4.79793e+6 
        2196.54      5.08083e+6 
        2209.46       5.3245e+6 
        2219.93      5.52179e+6 
         2230.4      5.71688e+6 
        2245.04      5.99494e+6 
        2257.62      6.23964e+6 
         2270.2      6.63523e+6 
        2282.79      6.92187e+6 
        2295.37      7.21517e+6 
        2313.13      7.64365e+6 
         2330.9      8.02089e+6 
        2348.67      8.41372e+6 
        2362.35      8.72169e+6 
        2373.07      8.95891e+6 
        2391.17      9.36314e+6 
        2409.27      9.77733e+6 
        2422.85      1.01201e+7 
        2436.42      1.04785e+7 
        2452.85      1.08378e+7 
        2463.31      1.10827e+7 
        2478.41       1.1428e+7 
        2498.55      1.18975e+7 
        2510.01      1.21589e+7 
        2532.94      1.26457e+7 
        2552.49      1.30583e+7 
        2565.97      1.33534e+7 
        2579.45      1.36594e+7 
        2592.94      1.39653e+7 
        2606.42      1.43289e+7 
         2619.9      1.46401e+7 
        2633.39      1.49233e+7 
        2645.53      1.51769e+7 
        2657.67       1.5429e+7 
        2669.81      1.56399e+7 
        2681.95      1.58491e+7 
         2694.1      1.60555e+7 
        2704.94      1.62379e+7 
        2730.52      1.66611e+7 
        2756.11      1.70733e+7 
        2807.28      1.78578e+7 
        2830.91      1.82062e+7 
        2854.55      1.85564e+7 
        2878.18      1.88608e+7 
        2901.82       1.9156e+7 
        2925.45      1.94421e+7 
        2945.18       1.9674e+7 
        2960.78      1.98467e+7 
        2976.39      2.00093e+7 
        3007.59      2.03227e+7 
        3051.42      2.07365e+7 
        3095.25      2.11227e+7 
         3128.3       2.1402e+7 
        3139.08       2.1483e+7 
        3149.86      2.15617e+7 
        3171.41      2.17106e+7 
        3214.53      2.19898e+7 
        3248.29      2.21913e+7 
        3282.06      2.23444e+7 
        3315.82      2.24836e+7 
        3346.73      2.25991e+7 
        3371.93       2.2683e+7 
        3408.55      2.27924e+7 
        3445.17      2.28874e+7 
        3493.21      2.29845e+7 
        3518.41      2.30223e+7 
         3543.6      2.30543e+7 
        3591.28      2.30961e+7 
        3635.88      2.31164e+7 
        3647.12      2.31178e+7 
        3658.96      2.31195e+7 
        3671.11      2.31196e+7 
        3682.58      2.31188e+7 
         3693.5      2.31177e+7 
        3703.57      2.31127e+7 
        3713.83      2.31126e+7 
        3724.38      2.31088e+7 
        3734.43      2.30691e+7 
        3744.62      2.30997e+7 
        3754.84      2.30952e+7 
        3765.07      2.30893e+7 
         3775.5      2.30879e+7 
        3786.22      2.30917e+7 
        3796.45       2.2955e+7 
        3807.84       2.3109e+7 
        3818.92      2.31209e+7 
        3830.45      2.29674e+7 
        3840.76      2.29925e+7 
        3851.98      2.31905e+7 
        3862.01      2.32248e+7 
        3872.59      2.31669e+7 
         3884.4      2.26071e+7 
        3894.99      2.27105e+7 
        3908.89      2.32631e+7 
        3919.07      2.33368e+7 
        3929.34      2.33522e+7 
        3939.89      2.33256e+7 
        3950.23      2.32044e+7 
        3960.58      2.26879e+7 
        3970.61       1.8497e+7 
         3980.9      2.27175e+7 
        3991.38      2.32045e+7 
        4003.87       2.3331e+7 
        4018.86      2.33526e+7 
        4032.38      2.33417e+7 
        4043.86      2.33204e+7 
        4058.85      2.32675e+7 
        4073.85      2.31303e+7 
         4085.7      2.27555e+7 
        4096.23       2.1023e+7 
        4106.46      2.04366e+7 
        4116.69      2.25658e+7 
        4128.84      2.29954e+7 
        4143.83      2.30908e+7 
        4158.83      2.30895e+7 
        4173.82       2.3063e+7 
        4188.82      2.30276e+7 
        4203.81      2.29878e+7 
        4216.52      2.29513e+7 
        4228.81       2.2914e+7 
        4243.81      2.28653e+7 
         4258.8      2.28116e+7 
         4273.8      2.27495e+7 
        4288.79      2.26684e+7 
        4303.79      2.25365e+7 
        4314.07       2.2353e+7 
        4324.82      2.18253e+7 
        4334.98      1.94548e+7 
        4345.11      1.86903e+7 
        4356.08      2.16686e+7 
        4367.98       2.2184e+7 
        4378.77      2.22901e+7 
        4393.77      2.23104e+7 
        4408.76      2.22845e+7 
        4423.76      2.22418e+7 
        4438.75      2.21917e+7 
        4453.75      2.21378e+7 
        4468.74      2.20818e+7 
        4483.74      2.20245e+7 
        4498.74      2.19825e+7 
        4513.73      2.19232e+7 
        4527.19      2.18692e+7 
        4538.73      2.18225e+7 
        4553.72      2.17612e+7 
        4568.72      2.16992e+7 
        4583.72      2.16367e+7 
        4596.53      2.15828e+7 
        4608.71      2.15313e+7 
         4623.7      2.14671e+7 
         4638.7      2.14024e+7 
         4653.7      2.13372e+7 
        4668.69      2.12713e+7 
        4683.69      2.12048e+7 
        4698.68      2.11374e+7 
        4713.68       2.1069e+7 
        4724.83      2.10172e+7 
        4738.67      2.09516e+7 
        4753.67       2.0878e+7 
        4768.67      2.08002e+7 
        4783.66      2.07152e+7 
        4798.66      2.06148e+7 
        4813.65      2.04784e+7 
        4828.65      2.02349e+7 
        4839.16      1.98453e+7 
        4850.22      1.85597e+7 
        4860.28      1.05342e+7 
        4870.86      1.79957e+7 
        4882.28      1.95724e+7 
        4892.79      1.99236e+7 
        4903.63      2.00343e+7 
        4915.55      2.00603e+7 
        4928.62      2.00444e+7 
        4943.62       2.0002e+7 
        4958.61      1.99478e+7 
        4973.61      1.98879e+7 
        4988.61      1.98246e+7 
         5003.6      1.97593e+7 
         5018.6      1.96927e+7 
         5033.6      1.96252e+7 
        5048.59      1.95571e+7 
        5063.59      1.94887e+7 
        5078.58      1.94199e+7 
        5093.58      1.93509e+7 
        5108.57      1.92817e+7 
        5123.57      1.92124e+7 
        5138.57      1.91429e+7 
        5153.56      1.90735e+7 
        5168.56       1.9004e+7 
        5183.56      1.89344e+7 
        5198.55      1.88649e+7 
        5213.55      1.87953e+7 
        5228.54      1.87257e+7 
        5243.54      1.86562e+7 
        5258.53      1.85866e+7 
        5273.53      1.85171e+7 
        5288.53      1.84477e+7 
        5303.52      1.83784e+7 
        5318.52      1.83091e+7 
        5333.52      1.82399e+7 
        5348.51      1.81707e+7 
        5363.51      1.81023e+7 
         5378.5      1.80332e+7 
         5393.5      1.79641e+7 
        5408.49       1.7895e+7 
        5423.49      1.78261e+7 
        5438.49      1.77573e+7 
        5453.48      1.76885e+7 
        5468.48      1.76199e+7 
        5483.48      1.75514e+7 
        5498.47      1.74831e+7 
        5513.47      1.74148e+7 
        5528.46      1.73467e+7 
        5543.46      1.72787e+7 
        5558.45      1.72108e+7 
        5573.45       1.7143e+7 
        5588.45      1.70754e+7 
        5603.44      1.70079e+7 
        5618.44      1.69406e+7 
        5633.43      1.68734e+7 
        5648.43      1.68063e+7 
        5663.43      1.67394e+7 
        5673.98      1.66941e+7 
         5686.2      1.66397e+7 
        5698.42      1.65855e+7 
        5708.88      1.65391e+7 
        5723.41      1.64748e+7 
        5738.41      1.64086e+7 
         5753.4      1.63425e+7 
         5768.4      1.62737e+7 
        5783.39      1.62079e+7 
        5798.39      1.61423e+7 
        5813.39      1.60768e+7 
        5828.38      1.60115e+7 
        5843.38      1.59464e+7 
        5858.37      1.58814e+7 
        5873.37      1.58167e+7 
        5888.37      1.57521e+7 
        5903.36      1.56876e+7 
        5918.36      1.56234e+7 
        5933.35      1.55593e+7 
        5948.35      1.54954e+7 
        5963.35      1.54317e+7 
        5978.34      1.53681e+7 
        5993.34      1.53047e+7 
        6008.33      1.52415e+7 
        6023.33      1.51784e+7 
        6038.32      1.51154e+7 
        6053.32      1.50527e+7 
        6068.32      1.49901e+7 
        6083.31      1.49277e+7 
        6098.31      1.48655e+7 
        6113.31      1.48034e+7 
         6128.3      1.47416e+7 
         6143.3        1.468e+7 
        6158.29      1.46185e+7 
        6173.29      1.45571e+7 
        6188.28      1.44959e+7 
        6203.28      1.44348e+7 
        6218.28      1.43738e+7 
        6233.27      1.43129e+7 
        6244.38      1.42678e+7 
        6256.04      1.42205e+7 
        6266.59      1.41777e+7 
        6278.26      1.41304e+7 
        6290.52      1.40806e+7 
        6302.31      1.40328e+7 
        6312.59      1.39909e+7 
        6323.25      1.39474e+7 
        6338.24       1.3886e+7 
        6353.24      1.38241e+7 
        6368.24      1.37617e+7 
        6383.23      1.36983e+7 
        6398.23      1.36335e+7 
        6413.22      1.35668e+7 
        6428.22      1.34971e+7 
        6443.22       1.3423e+7 
        6458.21      1.33417e+7 
        6473.21      1.32484e+7 
         6488.2      1.31339e+7 
         6503.2      1.29782e+7 
         6518.2      1.27332e+7 
        6532.67      1.22852e+7 
        6543.19      1.16103e+7 
        6553.87       9.9612e+6 
        6564.04         7.03e+6 
        6574.65      1.05256e+7 
        6584.68      1.16551e+7 
        6595.59      1.21712e+7 
         6608.5      1.24377e+7 
        6618.82      1.25356e+7 
         6634.3      1.25956e+7 
        6644.62      1.26051e+7 
        6660.33      1.25952e+7 
         6685.9      1.25464e+7 
        6711.48      1.24785e+7 
        6762.62      1.23217e+7 
        6802.75       1.2191e+7 
        6813.77      1.21547e+7 
        6824.78      1.21183e+7 
        6846.81      1.20458e+7 
        6890.86      1.19005e+7 
        6978.98      1.16118e+7 
        7025.03      1.14627e+7 
        7067.09      1.13277e+7 
        7109.15      1.11941e+7 
        7193.26      1.09331e+7 
        7277.38      1.06774e+7 
        7329.48      1.05218e+7 
         7361.5      1.04273e+7 
        7393.51      1.03346e+7 
        7457.55      1.01509e+7 
        7521.58      9.97032e+6 
        7585.61      9.79288e+6 
        7621.41      9.69505e+6 
        7649.65      9.61852e+6 
        7677.88      9.54262e+6 
        7734.35      9.39386e+6 
        7790.83      9.24744e+6 
         7847.3      9.10324e+6 
        7903.77      8.96133e+6 
        7958.24      8.82656e+6 
        7974.27      8.78747e+6 
         7990.3      8.74861e+6 
        8022.35      8.67142e+6 
        8082.55      8.52832e+6 
        8142.75      8.38815e+6 
        8200.85       8.2551e+6 
        8216.85      8.21897e+6 
        8232.84      8.18303e+6 
        8264.83      8.11169e+6 
        8289.72      8.05661e+6 
        8328.82      7.97088e+6 
        8343.44      7.93902e+6 
        8367.92      7.88606e+6 
        8388.68      7.84164e+6 
        8408.65      7.79916e+6 
        8432.02      7.74974e+6 
        8467.25      7.67582e+6 
        8502.48      7.60269e+6 
        8516.58      7.57366e+6 
        8530.98      7.54409e+6 
        8545.38      7.51475e+6 
        8574.18      7.45679e+6 
        8598.39      7.40803e+6 
         8628.6      7.34828e+6 
        8646.81      7.31234e+6 
        8665.01      7.27605e+6 
        8685.59      7.23644e+6 
        8701.43      7.20565e+6 
        8750.47      7.11012e+6 
        8767.92      7.07798e+6 
        8815.35      6.98841e+6 
        8862.78      6.89828e+6 
        8900.38      6.83246e+6 
        8957.65      6.72945e+6 
        9014.91      6.62128e+6 
        9044.62      6.57595e+6 
        9072.17      6.52858e+6 
        9099.72      6.48129e+6 
        9154.81       6.3884e+6 
         9190.8      6.32758e+6 
         9209.9      6.29409e+6 
        9229.01      6.24743e+6 
        9248.11      6.23151e+6 
        9264.99      6.20603e+6 
        9286.33       6.1726e+6 
        9324.54      6.11225e+6 
        9384.08      6.01857e+6 
        9443.63      5.92658e+6 
        9460.39       5.9007e+6 
        9481.78       5.8674e+6 
        9503.18      5.83315e+6 
        9513.87      5.81515e+6 
        9524.57      5.79552e+6 
        9535.27      5.77136e+6 
        9545.97      5.72452e+6 
        9556.66      5.73881e+6 
        9567.36      5.73105e+6 
        9583.41      5.71261e+6 
         9604.8      5.68437e+6 
        9626.73      5.65392e+6 
        9647.59      5.62449e+6 
        9668.45      5.59493e+6 
        9710.17      5.53643e+6 
        9793.62      5.42088e+6 
        9877.06       5.3076e+6 
        9952.82      5.20534e+6 
        10007.8      5.12611e+6 
        10018.2      5.10817e+6 
        10028.6      5.08658e+6 
          10039      5.05454e+6 
        10049.4      4.97254e+6 
        10063.7      5.03044e+6 
          10074      5.03035e+6 
        10084.4      5.02444e+6 
        10105.2      5.00588e+6 
        10146.8      4.95963e+6 
        10188.4      4.91037e+6 
        10222.7      4.86934e+6 
        10237.2        4.852e+6 
        10251.7       4.8351e+6 
        10280.7      4.80145e+6 
        10338.7      4.73476e+6 
        10396.6        4.669e+6 
        10454.6       4.6041e+6 
        10512.6      4.54029e+6 
        10570.6      4.47746e+6 
        10628.6      4.41548e+6 
        10686.6      4.35434e+6 
        10744.5      4.29383e+6 
        10802.5      4.23342e+6 
        10831.5      4.20254e+6 
        10860.5      4.16993e+6 
          10875      4.15193e+6 
        10889.5      4.13151e+6 
          10904      4.10575e+6 
        10918.5      4.06604e+6 
        10930.7      3.99174e+6 
        10941.2      3.92523e+6 
        10952.4      4.00823e+6 
        10968.4      4.03283e+6 
        10987.6      4.03374e+6 
        11000.4      4.02787e+6 
        11013.2       4.0197e+6 
          11026      4.01009e+6 
        11051.6      3.98882e+6 
        11102.8      3.94323e+6 
          11154       3.8968e+6 
        11205.2      3.85052e+6 
        11251.8      3.80871e+6 
          11270      3.79278e+6 
        11288.3      3.77723e+6 
        11324.7      3.74629e+6 
        11397.7      3.68525e+6 
        11470.7      3.62537e+6 
        11543.6      3.56643e+6 
        11616.6      3.50856e+6 
        11689.5      3.45176e+6 
        11762.5      3.39597e+6 
        11835.4      3.34121e+6 
        11908.4      3.28743e+6 
        11981.4      3.23462e+6 
        12054.3      3.18265e+6 
        12127.3       3.1317e+6 
        12200.2      3.08166e+6 
        12261.7      3.04017e+6 
        12273.2       3.0325e+6 
        12284.6      3.02486e+6 
        12307.5      3.01024e+6 
        12353.4      2.98121e+6 
          12445      2.92395e+6 
        12536.6      2.86752e+6 
        12628.3      2.81097e+6 
        12674.1      2.78141e+6 
          12697      2.76553e+6 
        12719.9      2.74792e+6 
        12742.8      2.72677e+6 
        12754.3      2.71345e+6 
        12765.7      2.69699e+6 
        12777.2      2.67458e+6 
        12788.6      2.64162e+6 
        12800.1       2.5846e+6 
        12810.1      2.47805e+6 
        12820.8      2.35656e+6 
        12833.4      2.53518e+6 
        12845.9      2.59119e+6 
        12858.5      2.61881e+6 
        12877.3      2.63554e+6 
        12889.9      2.63866e+6 
        12902.4      2.63834e+6 
        12927.5      2.63231e+6 
        12952.7       2.6227e+6 
        13002.9      2.59935e+6 
        13053.1       2.5741e+6 
        13103.3      2.54838e+6 
        13153.6       2.5226e+6 
        13203.8      2.49695e+6 
          13254      2.47151e+6 
        13300.1      2.44836e+6 
        13316.6      2.44034e+6 
          13333      2.43251e+6 
        13365.9      2.41693e+6 
        13431.6      2.38608e+6 
        13497.4      2.35565e+6 
        13563.1      2.32564e+6 
