# Koester WD models
# teff = 7750 K (value for the effective temperature for the model. Temperatures are given in K)
# logg = 8.75 log(cm/s2) (value for Log(G) for the model.)
#
# column 1: WAVELENGTH (ANGSTROM), Wavelength in Angstrom
# column 2: FLUX (ERG/CM2/S/A), Flux in erg/cm2/s/A
         899.23         6.92564 
        909.241         8.86972 
        919.251         15.5003 
        929.261         25.9144 
        939.271         57.1729 
         949.28         24.1008 
        959.289         126.511 
        969.297         126.609 
        979.305         199.644 
        989.312         273.048 
        999.319         348.315 
        1009.33         415.457 
        1019.33         384.729 
        1029.34         407.832 
        1039.34         727.009 
        1049.35         926.952 
        1059.36         1098.43 
        1069.36         1315.39 
        1079.36         1535.44 
        1089.37         1789.17 
        1099.37         2063.91 
        1109.38         2347.02 
        1119.38         2710.86 
        1129.38         3088.24 
        1139.39         3438.94 
        1149.39         3725.36 
        1159.39          3846.5 
        1169.39          3802.8 
         1179.4         3621.47 
         1189.4         3705.38 
         1199.4         3960.13 
         1209.4         3660.55 
        1219.41          3844.4 
        1229.41         6192.24 
        1239.41         7396.57 
        1249.41         8419.41 
        1259.41         9619.12 
        1269.41         11246.7 
        1279.42         13186.6 
        1289.42         15031.8 
        1299.42         16987.3 
        1309.42         19020.6 
        1319.42         21061.7 
        1329.42         23484.7 
        1339.42         25877.6 
        1349.42         28425.8 
        1359.42         31351.5 
        1369.42         34362.4 
        1379.42         37344.7 
        1389.42         40721.3 
        1399.42         44719.9 
        1409.42         48619.9 
        1419.42         52156.7 
        1429.42         56050.1 
        1439.42         60852.3 
        1451.92         68060.4 
        1464.42         74371.2 
        1476.35         79289.1 
        1489.42         86147.2 
        1501.92         93994.9 
        1514.42          104781 
        1529.42          116906 
        1541.92          126091 
        1554.42          130931 
        1566.72          137738 
        1579.41          146048 
        1594.41          157068 
        1604.41          166893 
        1616.91          183931 
        1629.41          207974 
        1641.91          240206 
        1654.41          283531 
        1665.56          335711 
        1676.33          399171 
         1687.1          490981 
        1698.05          653106 
        1708.62          884726 
         1719.4       1.1691e+6 
         1734.4      1.60116e+6 
        1746.89      1.94103e+6 
        1758.14      2.19003e+6 
        1769.39      2.38939e+6 
        1780.02       2.5915e+6 
        1790.64      2.92175e+6 
        1804.39      3.22086e+6 
        1824.38      3.67965e+6 
        1834.77      3.93208e+6 
        1846.32      4.21762e+6 
        1856.32      4.61588e+6 
        1866.33      4.95018e+6 
        1877.77      5.28174e+6 
        1900.65      5.99604e+6 
        1912.44      6.38601e+6 
        1922.83      6.73491e+6 
        1933.22      7.16553e+6 
         1943.5      7.77415e+6 
        1953.56      8.31319e+6 
        1966.66      8.78738e+6 
        1977.28      9.17951e+6 
        1997.55      9.95121e+6 
        2007.68      1.03485e+7 
        2017.81      1.07542e+7 
        2027.94      1.14302e+7 
        2038.08      1.18754e+7 
        2053.27      1.24813e+7 
        2067.03      1.30366e+7 
        2094.55        1.418e+7 
         2105.4      1.46375e+7 
        2116.25      1.50992e+7 
        2127.11      1.55598e+7 
        2137.96      1.62411e+7 
        2148.81      1.67197e+7 
        2159.66       1.7162e+7 
        2170.89      1.76133e+7 
        2189.45      1.83533e+7 
        2213.69      1.93244e+7 
        2227.77      1.98695e+7 
        2245.84      2.05638e+7 
        2257.14      2.09999e+7 
        2268.43      2.16961e+7 
        2286.51      2.24497e+7 
        2304.58      2.31829e+7 
        2330.24      2.41638e+7 
        2347.36      2.47987e+7 
        2362.35      2.53508e+7 
        2375.43      2.58191e+7 
        2392.35      2.64174e+7 
        2409.27      2.70124e+7 
        2430.05      2.78669e+7 
        2443.12       2.8284e+7 
        2456.19      2.86939e+7 
        2466.76      2.90366e+7 
        2488.39      2.97068e+7 
        2510.01      3.03884e+7 
        2531.64      3.09882e+7 
         2547.3      3.14107e+7 
        2559.23      3.17257e+7 
        2571.17      3.20502e+7 
        2595.04      3.26842e+7 
        2627.89      3.36056e+7 
        2642.78      3.39455e+7 
        2657.67      3.42773e+7 
        2678.36      3.46719e+7 
        2717.24      3.53684e+7 
        2756.11      3.60086e+7 
        2794.98      3.65845e+7 
        2813.16      3.68355e+7 
        2833.85      3.71148e+7 
        2854.55      3.73897e+7 
        2895.93      3.78194e+7 
        2921.65      3.80604e+7 
        2937.32      3.81977e+7 
        2952.98      3.83284e+7 
        2984.31      3.85511e+7 
        3042.53      3.88961e+7 
        3060.31       3.8984e+7 
         3077.5      3.90616e+7 
        3113.68      3.92052e+7 
        3149.86      3.93158e+7 
        3196.14      3.93934e+7 
        3222.22      3.94191e+7 
        3248.29      3.94323e+7 
        3300.45      3.93943e+7 
        3346.73      3.93239e+7 
        3433.42      3.91034e+7 
        3445.17      3.90657e+7 
        3456.92      3.90255e+7 
        3480.41      3.89397e+7 
        3511.22      3.88141e+7 
        3527.41      3.87427e+7 
         3543.6      3.86686e+7 
        3560.69      3.85869e+7 
        3575.99      3.85115e+7 
        3591.28       3.8433e+7 
        3604.78       3.8361e+7 
        3621.87       3.8269e+7 
        3635.88       3.8192e+7 
        3647.12       3.8127e+7 
        3658.96      3.80601e+7 
        3671.11      3.79885e+7 
        3682.58      3.79209e+7 
         3693.5      3.78559e+7 
        3703.57      3.77924e+7 
        3713.83      3.77321e+7 
        3724.38       3.7668e+7 
        3734.43      3.75694e+7 
        3744.62       3.7548e+7 
        3754.84      3.74874e+7 
        3765.07      3.74227e+7 
         3775.5      3.73648e+7 
        3786.22      3.73231e+7 
        3796.45      3.69674e+7 
        3807.84      3.72401e+7 
        3818.92      3.72018e+7 
        3830.45      3.68741e+7 
        3840.76      3.68757e+7 
        3851.98      3.71848e+7 
        3862.01       3.7199e+7 
        3872.59      3.69932e+7 
         3884.4      3.59203e+7 
        3894.99       3.6052e+7 
        3906.47      3.70208e+7 
        3918.01      3.72741e+7 
        3928.33      3.72935e+7 
        3938.55      3.71729e+7 
        3948.88      3.67855e+7 
        3960.37      3.54409e+7 
        3970.37      2.78413e+7 
        3982.23      3.56643e+7 
         3992.4      3.66875e+7 
        4002.44      3.70526e+7 
        4012.47       3.7166e+7 
        4023.75       3.7177e+7 
        4034.19      3.71368e+7 
        4048.86      3.70086e+7 
        4063.85      3.67045e+7 
        4075.42      3.61619e+7 
        4085.65      3.50083e+7 
        4096.17      3.12397e+7 
        4106.54      3.01227e+7 
        4116.69      3.44171e+7 
        4127.38      3.57369e+7 
        4138.83      3.62065e+7 
           4151      3.63617e+7 
        4163.83      3.63715e+7 
        4178.82       3.6309e+7 
        4193.82      3.62166e+7 
        4208.81      3.61079e+7 
         4221.1      3.60108e+7 
        4233.81      3.59027e+7 
         4248.8      3.57623e+7 
         4263.8      3.55952e+7 
         4278.8      3.53756e+7 
        4293.79      3.50388e+7 
        4308.79      3.43894e+7 
        4320.85      3.31394e+7 
        4331.09       3.0077e+7 
        4341.19      1.70842e+7 
        4351.76      3.05392e+7 
        4363.38      3.31639e+7 
        4373.77      3.39129e+7 
        4388.77       3.4266e+7 
        4403.76       3.4332e+7 
        4418.76      3.42889e+7 
        4433.75      3.41987e+7 
        4448.75      3.40866e+7 
        4463.75      3.39653e+7 
        4478.74      3.38387e+7 
        4493.74       3.3709e+7 
        4508.73      3.35987e+7 
        4523.35      3.34683e+7 
        4533.35      3.33785e+7 
        4543.73      3.32849e+7 
        4558.72      3.31488e+7 
        4573.72      3.30122e+7 
        4588.71      3.28749e+7 
        4600.89       3.2763e+7 
        4613.71      3.26455e+7 
         4628.7      3.25067e+7 
         4643.7      3.23672e+7 
        4658.69      3.22268e+7 
        4673.69      3.20851e+7 
        4688.69      3.19418e+7 
        4703.68      3.17964e+7 
         4715.6      3.16782e+7 
        4728.68       3.1545e+7 
        4743.67      3.13859e+7 
        4758.67      3.12156e+7 
        4773.66      3.10257e+7 
        4788.66      3.07996e+7 
        4803.66      3.04964e+7 
        4818.65      3.00197e+7 
        4831.15      2.92779e+7 
        4842.27      2.78561e+7 
        4852.58      2.42663e+7 
        4862.63      1.48788e+7 
        4873.36      2.55345e+7 
        4884.32      2.80682e+7 
        4896.24      2.90131e+7 
        4906.75      2.93402e+7 
        4918.24      2.94828e+7 
        4928.62      2.95193e+7 
        4943.62      2.94929e+7 
        4958.61        2.942e+7 
        4973.61      2.93237e+7 
        4988.61      2.92143e+7 
         5003.6      2.90976e+7 
         5018.6       2.8976e+7 
         5033.6      2.88515e+7 
        5048.59      2.87254e+7 
        5063.59      2.85981e+7 
        5078.58      2.84702e+7 
        5093.58       2.8342e+7 
        5108.57      2.82136e+7 
        5123.57      2.80852e+7 
        5138.57       2.7957e+7 
        5153.56      2.78289e+7 
        5168.56      2.77011e+7 
        5183.56      2.75735e+7 
        5198.55      2.74462e+7 
        5213.55      2.73192e+7 
        5228.54      2.71926e+7 
        5243.54      2.70663e+7 
        5258.53      2.69404e+7 
        5273.53      2.68149e+7 
        5288.53      2.66898e+7 
        5303.52      2.65651e+7 
        5318.52      2.64408e+7 
        5333.52       2.6317e+7 
        5348.51      2.61935e+7 
        5363.51      2.60727e+7 
         5378.5      2.59499e+7 
         5393.5      2.58276e+7 
        5408.49      2.57058e+7 
        5423.49      2.55843e+7 
        5438.49      2.54634e+7 
        5453.48      2.53429e+7 
        5468.48      2.52229e+7 
        5483.48      2.51034e+7 
        5498.47      2.49844e+7 
        5513.47      2.48658e+7 
        5528.46      2.47477e+7 
        5543.46      2.46301e+7 
        5558.45      2.45129e+7 
        5573.45      2.43962e+7 
        5588.45        2.428e+7 
        5603.44      2.41643e+7 
        5618.44       2.4049e+7 
        5633.43      2.39343e+7 
        5648.43        2.382e+7 
        5663.43      2.37062e+7 
        5673.98      2.36325e+7 
         5686.2      2.35403e+7 
        5698.42      2.34484e+7 
        5708.88      2.33699e+7 
        5723.41      2.32614e+7 
        5738.41      2.31499e+7 
         5753.4      2.30388e+7 
         5768.4      2.29204e+7 
        5783.39      2.28101e+7 
        5798.39      2.27002e+7 
        5813.39      2.25909e+7 
        5828.38       2.2482e+7 
        5843.38      2.23736e+7 
        5858.37      2.22657e+7 
        5873.37      2.21582e+7 
        5888.37      2.20512e+7 
        5903.36      2.19447e+7 
        5918.36      2.18387e+7 
        5933.35       2.1733e+7 
        5948.35      2.16278e+7 
        5963.35       2.1523e+7 
        5978.34      2.14186e+7 
        5993.34      2.13147e+7 
        6008.33      2.12112e+7 
        6023.33      2.11081e+7 
        6038.32      2.10054e+7 
        6053.32      2.09032e+7 
        6068.32      2.08013e+7 
        6083.31      2.06998e+7 
        6098.31      2.05987e+7 
        6113.31       2.0498e+7 
         6128.3      2.03977e+7 
         6143.3      2.02977e+7 
        6158.29      2.01981e+7 
        6173.29      2.00987e+7 
        6188.28      1.99995e+7 
        6203.28      1.99006e+7 
        6218.28      1.98019e+7 
        6233.27      1.97033e+7 
        6244.38      1.96303e+7 
        6256.04      1.95537e+7 
        6266.59      1.94845e+7 
        6278.26      1.94077e+7 
        6290.52      1.93269e+7 
        6302.31      1.92489e+7 
        6312.59      1.91808e+7 
        6323.25      1.91096e+7 
        6338.24      1.90088e+7 
        6353.24      1.89067e+7 
        6368.24      1.88028e+7 
        6383.23      1.86962e+7 
        6398.23      1.85859e+7 
        6413.22      1.84703e+7 
        6428.22      1.83468e+7 
        6443.22      1.82115e+7 
        6458.21      1.80579e+7 
        6473.21       1.7875e+7 
         6488.2      1.76427e+7 
         6503.2      1.73203e+7 
         6518.2       1.6821e+7 
        6530.43      1.61405e+7 
        6541.53      1.50394e+7 
        6551.59      1.31066e+7 
        6561.85      9.42079e+6 
        6572.47      1.25626e+7 
        6583.18      1.46975e+7 
        6593.31      1.56784e+7 
        6603.34      1.62073e+7 
        6613.66      1.65188e+7 
        6623.98      1.67026e+7 
        6639.46      1.68424e+7 
        6649.78       1.6883e+7 
         6660.1       1.6898e+7 
        6680.74      1.68807e+7 
         6691.3      1.68563e+7 
        6701.39      1.68266e+7 
        6711.48      1.67923e+7 
        6731.66      1.67143e+7 
        6772.02      1.65361e+7 
        6824.78      1.62837e+7 
        6877.54      1.60257e+7 
         6930.3      1.57669e+7 
        6983.06      1.55096e+7 
        7035.82      1.52551e+7 
        7068.02      1.51015e+7 
        7088.58      1.50041e+7 
        7109.15      1.49072e+7 
        7150.27      1.47166e+7 
        7232.53      1.43424e+7 
        7314.78      1.39778e+7 
        7393.51      1.36403e+7 
        7472.25      1.33106e+7 
        7550.98      1.29894e+7 
        7581.55       1.2867e+7 
        7629.72      1.26765e+7 
        7677.88      1.24891e+7 
        7774.21      1.21258e+7 
        7870.55       1.1774e+7 
        7962.25      1.14493e+7 
        8025.35      1.12327e+7 
        8053.95       1.1136e+7 
        8082.55      1.10402e+7 
        8139.75       1.0852e+7 
        8191.03      1.06862e+7 
        8202.85      1.06484e+7 
        8216.85      1.06039e+7 
        8232.84      1.05534e+7 
        8264.83      1.04531e+7 
        8289.72      1.03759e+7 
        8328.82      1.02558e+7 
        8343.44      1.02113e+7 
        8367.92      1.01372e+7 
        8388.68      1.00752e+7 
        8408.65      1.00159e+7 
        8432.02      9.94694e+6 
        8467.25      9.84402e+6 
        8502.48       9.7423e+6 
        8516.58      9.70196e+6 
        8530.98       9.6609e+6 
        8545.38      9.62022e+6 
        8574.18      9.53973e+6 
        8598.39      9.47231e+6 
         8628.6       9.3895e+6 
        8646.81      9.33977e+6 
        8665.01      9.28978e+6 
        8685.59      9.23493e+6 
        8701.43      9.19252e+6 
        8750.47      9.06092e+6 
        8767.92      9.01653e+6 
        8815.35       8.8935e+6 
        8862.78      8.76969e+6 
        8900.38      8.67972e+6 
        8957.65      8.53875e+6 
        9014.91      8.39019e+6 
        9044.62      8.32905e+6 
        9072.17      8.26487e+6 
        9099.72      8.20062e+6 
        9154.81      8.07421e+6 
         9190.8      7.99099e+6 
         9209.9      7.94452e+6 
        9229.01      7.88059e+6 
        9248.11      7.85957e+6 
        9267.22      7.82172e+6 
        9305.43      7.74164e+6 
        9379.63      7.58453e+6 
        9397.45      7.54711e+6 
        9415.28      7.50982e+6 
        9450.94      7.43486e+6 
        9498.52      7.33185e+6 
        9510.38      7.30417e+6 
        9522.24      7.27395e+6 
         9534.1      7.23644e+6 
        9545.97      7.16921e+6 
        9557.83      7.18737e+6 
        9569.68       7.1776e+6 
        9587.48      7.15196e+6 
         9611.2      7.11194e+6 
        9648.83      7.04376e+6 
        9668.45      7.00745e+6 
        9688.08      6.97113e+6 
        9727.33      6.89856e+6 
        9805.83      6.75442e+6 
        9815.86      6.73614e+6 
        9884.34       6.6117e+6 
        9952.82      6.48374e+6 
        9993.24      6.40125e+6 
        10007.3      6.36839e+6 
        10021.3      6.33062e+6 
        10035.3      6.27913e+6 
        10045.9       6.1967e+6 
        10056.4      6.20842e+6 
        10068.7      6.23179e+6 
        10082.7      6.22946e+6 
        10096.7      6.21916e+6 
        10124.8       6.1879e+6 
        10152.9      6.14979e+6 
        10180.9      6.10886e+6 
        10236.9      6.02378e+6 
        10255.6      5.99554e+6 
        10274.2       5.9673e+6 
        10311.5      5.91091e+6 
        10386.2      5.79925e+6 
        10460.9      5.68911e+6 
        10535.5      5.58148e+6 
        10610.2      5.47598e+6 
        10684.8      5.37156e+6 
        10759.5       5.2666e+6 
        10796.8      5.21212e+6 
        10834.1      5.15391e+6 
        10852.8      5.12146e+6 
        10871.4      5.08495e+6 
        10890.1      5.04075e+6 
        10901.4      5.00635e+6 
        10916.1      4.94622e+6 
        10927.1      4.86538e+6 
        10937.2      4.66423e+6 
        10948.6      4.81873e+6 
        10959.6      4.87415e+6 
        10974.3      4.90227e+6 
        10996.3      4.91213e+6 
        11010.9      4.90927e+6 
        11025.6      4.90095e+6 
        11054.9      4.87751e+6 
        11084.2      4.84855e+6 
        11113.6      4.81741e+6 
        11172.2      4.75166e+6 
        11200.8      4.71905e+6 
        11230.9      4.68468e+6 
        11260.9      4.65041e+6 
          11321      4.58424e+6 
        11381.1       4.5189e+6 
        11441.2        4.455e+6 
        11501.3      4.39151e+6 
        11561.4      4.32905e+6 
        11621.5       4.2676e+6 
        11681.6      4.20719e+6 
        11741.6      4.14778e+6 
        11801.7      4.08932e+6 
        11861.8      4.03183e+6 
        11921.9      3.97528e+6 
          11982      3.91967e+6 
        12042.1      3.86444e+6 
        12102.2      3.81053e+6 
        12162.3      3.75747e+6 
        12222.4      3.70519e+6 
        12280.3      3.65549e+6 
        12297.5      3.64123e+6 
        12314.6      3.62713e+6 
          12349      3.59907e+6 
        12417.6      3.54337e+6 
        12486.2      3.48786e+6 
        12554.8      3.43184e+6 
        12623.4      3.37278e+6 
        12657.7      3.34036e+6 
          12692      3.30313e+6 
        12709.1      3.28152e+6 
        12726.3      3.25585e+6 
        12743.5      3.22516e+6 
        12760.6      3.18375e+6 
        12777.8      3.12608e+6 
        12790.6      3.06005e+6 
        12801.3      2.97185e+6 
        12812.1      2.79571e+6 
        12822.4      2.74068e+6 
        12834.4      2.91837e+6 
        12844.7      2.99026e+6 
        12858.4      3.04912e+6 
        12872.1      3.08337e+6 
        12892.7       3.1101e+6 
        12906.4      3.11784e+6 
        12920.1      3.12143e+6 
        12947.6      3.11957e+6 
          12975       3.1112e+6 
        13002.5      3.09914e+6 
        13057.4      3.06968e+6 
        13112.3      3.03697e+6 
        13167.2      3.00305e+6 
        13222.1      2.96879e+6 
        13245.7      2.95407e+6 
          13277      2.93452e+6 
        13308.4      2.91505e+6 
          13371      2.87756e+6 
        13433.7      2.84053e+6 
        13496.4      2.80403e+6 
        13559.1      2.76801e+6 
        13621.8      2.73293e+6 
