# Koester WD models
# teff = 7000 K (value for the effective temperature for the model. Temperatures are given in K)
# logg = 8 log(cm/s2) (value for Log(G) for the model.)
#
# column 1: WAVELENGTH (ANGSTROM), Wavelength in Angstrom
# column 2: FLUX (ERG/CM2/S/A), Flux in erg/cm2/s/A
         899.23        0.776021 
        909.241         1.01805 
        919.251         1.73921 
        929.261         2.43557 
        939.271         3.88989 
         949.28         3.01128 
        959.289         9.21904 
        969.297         12.1352 
        979.305         17.8899 
        989.312         24.1668 
        999.319         31.3977 
        1009.33         39.4138 
        1019.33         43.0053 
        1029.34         47.9328 
        1039.34         75.6543 
        1049.35         93.9713 
        1059.36          113.31 
        1069.36         135.962 
        1079.36          161.91 
        1089.37         191.148 
        1099.37         225.147 
        1109.38         262.391 
        1119.38         308.798 
        1129.38         359.634 
        1139.39          412.46 
        1149.39         464.378 
        1159.39         503.139 
        1169.39         521.134 
         1179.4         506.843 
         1189.4         528.884 
         1199.4         578.515 
         1209.4         560.331 
        1219.41         607.961 
        1229.41         944.303 
        1239.41         1139.17 
        1249.41         1316.66 
        1259.41         1522.09 
        1269.41         1806.24 
        1279.42         2141.12 
        1289.42         2469.14 
        1299.42         2815.29 
        1309.42         3188.28 
        1319.42         3574.16 
        1329.42         4028.65 
        1339.42         4490.25 
        1349.42         4993.97 
        1359.42         5573.85 
        1369.42          6173.1 
        1379.42         6800.57 
        1389.42         7507.06 
        1399.42         8313.97 
        1409.42         9136.35 
        1419.42         9964.79 
        1429.42         10862.7 
        1439.42         11885.4 
        1454.42         13678.1 
        1464.42         14896.3 
        1474.42         16039.2 
        1489.42         17906.8 
        1501.92         19703.4 
        1514.42         22076.4 
        1529.42         25035.1 
        1541.92         27470.8 
        1554.42           29246 
        1566.72         31173.1 
        1579.41           33495 
        1594.41         36539.9 
        1604.41         39122.3 
        1616.91         43502.9 
        1629.41         49401.9 
        1644.41         58556.1 
        1656.91           68226 
         1669.4         80319.2 
        1680.56         93271.7 
        1690.94          109501 
        1701.71          133662 
        1713.63          167687 
        1724.01          205068 
         1734.4          248036 
        1746.89          297029 
        1758.14          333263 
        1769.39          365226 
        1780.02          402011 
        1790.64          461132 
        1804.39          519277 
        1824.38          611875 
        1834.77          664390 
        1846.32          725369 
        1856.32          812614 
        1866.33          889200 
        1877.77          968547 
        1893.03       1.0865e+6 
        1908.28      1.21607e+6 
        1919.37      1.31807e+6 
        1929.76      1.41576e+6 
        1939.82      1.61779e+6 
        1949.88      1.79238e+6 
         1960.7      1.91578e+6 
        1974.38      2.08056e+6 
        1989.83      2.27751e+6 
        2005.27      2.48967e+6 
         2015.4       2.6364e+6 
        2026.25      2.88079e+6 
         2039.5      3.11695e+6 
        2058.09      3.40363e+6 
        2075.98      3.69599e+6 
        2089.37      3.92621e+6 
        2102.81        4.166e+6 
        2116.25      4.41422e+6 
        2126.33      4.60661e+6 
        2136.41      4.88694e+6 
        2148.17      5.14643e+6 
        2158.58      5.34633e+6 
        2186.64      5.89661e+6 
         2214.7      6.47105e+6 
        2232.17      6.82838e+6 
        2242.75      7.04835e+6 
        2253.33      7.27276e+6 
        2263.91      7.56857e+6 
         2274.5      7.90151e+6 
        2293.01      8.33917e+6 
        2303.07      8.58126e+6 
        2313.13      8.82681e+6 
         2323.2      9.04285e+6 
        2333.26      9.26035e+6 
        2343.32      9.47998e+6 
        2353.38      9.70058e+6 
        2380.31      1.02832e+7 
        2409.27      1.09077e+7 
        2451.59      1.18721e+7 
        2466.76      1.21869e+7 
        2488.39      1.26288e+7 
        2510.01      1.30806e+7 
        2531.64       1.3496e+7 
         2547.3      1.37948e+7 
        2559.23      1.40211e+7 
        2571.17      1.42619e+7 
        2595.04      1.47404e+7 
        2627.89        1.545e+7 
        2642.78      1.57201e+7 
        2657.67      1.59883e+7 
        2672.56      1.62186e+7 
        2687.45      1.64464e+7 
        2717.24      1.68923e+7 
        2756.11      1.74563e+7 
        2794.98      1.79931e+7 
        2813.16      1.82367e+7 
        2833.85      1.85137e+7 
        2854.55      1.87906e+7 
        2895.93      1.92567e+7 
        2921.65       1.9534e+7 
        2937.32      1.96981e+7 
        2952.98      1.98589e+7 
        2984.31      2.01518e+7 
        3042.53       2.0659e+7 
        3060.31      2.08045e+7 
         3077.5      2.09409e+7 
        3113.68      2.12172e+7 
        3149.86      2.14697e+7 
        3186.04      2.16853e+7 
        3196.14      2.17427e+7 
        3222.22      2.18851e+7 
        3248.29      2.20192e+7 
        3300.45      2.22303e+7 
        3346.73      2.23921e+7 
        3433.42       2.2629e+7 
        3445.17      2.26552e+7 
        3456.92      2.26791e+7 
        3480.41      2.27233e+7 
        3511.22      2.27679e+7 
        3527.41      2.27869e+7 
         3543.6      2.28036e+7 
        3560.69       2.2818e+7 
        3575.99      2.28287e+7 
        3591.28      2.28374e+7 
        3604.78       2.2843e+7 
        3621.87      2.28484e+7 
        3635.88      2.28512e+7 
        3647.12      2.28511e+7 
        3658.96      2.28513e+7 
        3671.11      2.28499e+7 
        3682.58      2.28475e+7 
         3693.5      2.28454e+7 
        3703.57      2.28372e+7 
        3713.83      2.28385e+7 
        3724.38      2.28345e+7 
        3734.43      2.27661e+7 
        3744.62      2.28277e+7 
        3754.84      2.28265e+7 
        3765.07      2.28213e+7 
         3775.5      2.28277e+7 
        3786.22      2.28465e+7 
        3796.45       2.2581e+7 
        3807.84      2.28909e+7 
        3818.92      2.29263e+7 
        3830.45      2.26531e+7 
        3840.76      2.26887e+7 
        3851.98      2.30386e+7 
        3862.01      2.30952e+7 
        3872.59      2.30169e+7 
        3883.67      2.23325e+7 
        3894.29      2.22408e+7 
        3905.58      2.30691e+7 
        3916.16        2.322e+7 
        3928.22      2.32541e+7 
        3938.89       2.3231e+7 
        3950.65      2.30758e+7 
        3961.37      2.23573e+7 
        3971.45      1.88594e+7 
        3981.87      2.26334e+7 
        3992.03      2.31049e+7 
        4003.87      2.32278e+7 
        4015.58      2.32488e+7 
        4028.86       2.3241e+7 
        4043.86      2.32139e+7 
        4058.85      2.31602e+7 
        4073.85      2.30205e+7 
         4085.7      2.26306e+7 
        4096.23      2.07145e+7 
        4106.41      2.00644e+7 
        4116.69      2.24523e+7 
        4128.84      2.28839e+7 
        4143.83      2.29751e+7 
        4158.83      2.29702e+7 
        4173.82      2.29414e+7 
        4188.82      2.29043e+7 
        4203.81      2.28631e+7 
        4216.52      2.28257e+7 
        4228.81      2.27877e+7 
        4243.81      2.27385e+7 
         4258.8      2.26846e+7 
         4273.8       2.2623e+7 
        4288.79      2.25438e+7 
        4303.79      2.24166e+7 
        4314.07      2.22406e+7 
        4324.82      2.17267e+7 
        4334.94      1.93151e+7 
         4345.1      1.85231e+7 
        4356.08      2.15886e+7 
        4367.98      2.20737e+7 
        4378.77      2.21684e+7 
        4393.77      2.21819e+7 
        4408.76      2.21529e+7 
        4423.76      2.21086e+7 
        4438.75      2.20574e+7 
        4453.75      2.20029e+7 
        4468.74      2.19465e+7 
        4483.74      2.18888e+7 
        4498.74      2.18627e+7 
        4513.73      2.18023e+7 
        4527.19      2.17475e+7 
        4538.73      2.17001e+7 
        4553.72      2.16378e+7 
        4568.72      2.15751e+7 
        4583.72      2.15119e+7 
        4596.53      2.14575e+7 
        4608.71      2.14055e+7 
         4623.7      2.13408e+7 
         4638.7      2.12757e+7 
         4653.7        2.121e+7 
        4668.69      2.11439e+7 
        4683.69      2.10771e+7 
        4698.68      2.10096e+7 
        4713.68      2.09411e+7 
        4724.83      2.08894e+7 
        4738.67      2.08241e+7 
        4753.67      2.07511e+7 
        4768.67      2.06745e+7 
        4783.66      2.05914e+7 
        4798.66      2.04947e+7 
        4813.65      2.03658e+7 
        4828.65      2.01396e+7 
        4839.16      1.97784e+7 
        4850.22      1.85593e+7 
        4860.28      1.03481e+7 
         4870.5      1.79259e+7 
        4882.01      1.95055e+7 
        4893.63      1.98453e+7 
        4908.63      1.99396e+7 
         4921.7      1.99357e+7 
        4933.62      1.99076e+7 
        4948.62      1.98573e+7 
        4963.61      1.97992e+7 
        4978.61      1.97369e+7 
        4993.61      1.96722e+7 
         5008.6      1.96059e+7 
         5023.6      1.95387e+7 
        5038.59      1.94708e+7 
        5053.59      1.94024e+7 
        5068.59      1.93338e+7 
        5083.58       1.9265e+7 
        5098.58       1.9196e+7 
        5113.57      1.91269e+7 
        5128.57      1.90577e+7 
        5143.57      1.89884e+7 
        5158.56      1.89191e+7 
        5173.56      1.88497e+7 
        5188.55      1.87804e+7 
        5203.55       1.8711e+7 
        5218.55      1.86417e+7 
        5233.54      1.85724e+7 
        5248.54      1.85031e+7 
        5263.53      1.84338e+7 
        5278.53      1.83646e+7 
        5293.52      1.82955e+7 
        5308.52      1.82265e+7 
        5323.52      1.81575e+7 
        5338.51      1.80885e+7 
        5353.51      1.80197e+7 
        5368.51      1.79515e+7 
         5383.5      1.78827e+7 
         5398.5       1.7814e+7 
        5413.49      1.77453e+7 
        5428.49      1.76768e+7 
        5443.48      1.76084e+7 
        5458.48        1.754e+7 
        5473.48      1.74718e+7 
        5488.47      1.74038e+7 
        5503.47      1.73358e+7 
        5518.47       1.7268e+7 
        5533.46      1.72003e+7 
        5548.46      1.71328e+7 
        5563.45      1.70653e+7 
        5578.45       1.6998e+7 
        5593.44      1.69308e+7 
        5608.44      1.68638e+7 
        5623.44      1.67969e+7 
        5638.43      1.67301e+7 
        5653.43      1.66635e+7 
        5668.43       1.6598e+7 
        5682.86      1.65341e+7 
        5693.42      1.64875e+7 
        5704.77      1.64375e+7 
        5715.23      1.63915e+7 
        5728.41      1.63336e+7 
         5743.4      1.62679e+7 
         5758.4      1.62024e+7 
         5773.4      1.61346e+7 
        5788.39      1.60693e+7 
        5803.39      1.60042e+7 
        5818.39      1.59393e+7 
        5833.38      1.58745e+7 
        5848.38      1.58099e+7 
        5863.37      1.57455e+7 
        5878.37      1.56813e+7 
        5893.36      1.56172e+7 
        5908.36      1.55534e+7 
        5923.36      1.54896e+7 
        5938.35      1.54261e+7 
        5953.35      1.53627e+7 
        5968.34      1.52996e+7 
        5983.34      1.52365e+7 
        5998.34      1.51737e+7 
        6013.33       1.5111e+7 
        6028.33      1.50486e+7 
        6043.32      1.49864e+7 
        6058.32      1.49244e+7 
        6073.32      1.48626e+7 
        6088.31       1.4801e+7 
        6103.31      1.47395e+7 
         6118.3      1.46782e+7 
         6133.3      1.46171e+7 
         6148.3      1.45562e+7 
        6163.29      1.44953e+7 
        6178.29      1.44347e+7 
        6193.28      1.43741e+7 
        6208.28      1.43138e+7 
        6223.28      1.42535e+7 
        6238.27      1.41933e+7 
        6252.16      1.41377e+7 
        6262.16      1.40976e+7 
        6273.26      1.40532e+7 
        6284.63      1.40077e+7 
        6295.99      1.39622e+7 
        6306.09      1.39218e+7 
        6316.22      1.38812e+7 
        6328.25      1.38328e+7 
        6343.24      1.37724e+7 
        6358.24      1.37115e+7 
        6373.23      1.36502e+7 
        6388.23      1.35879e+7 
        6403.23      1.35245e+7 
        6418.22      1.34592e+7 
        6433.22      1.33912e+7 
        6448.22      1.33189e+7 
        6463.21      1.32394e+7 
        6478.21      1.31479e+7 
         6493.2      1.30339e+7 
         6508.2      1.28744e+7 
        6523.19      1.26086e+7 
        6537.09      1.21029e+7 
        6548.06      1.11451e+7 
        6558.19      8.62901e+6 
        6568.58      9.07085e+6 
        6579.13      1.12416e+7 
        6590.04      1.20002e+7 
        6603.34      1.23517e+7 
        6613.66       1.2467e+7 
        6623.98      1.25211e+7 
         6634.3      1.25424e+7 
        6644.62      1.25448e+7 
        6660.33      1.25277e+7 
         6685.9      1.24723e+7 
        6711.48      1.24012e+7 
        6762.62      1.22419e+7 
        6802.75      1.21109e+7 
        6813.77      1.20746e+7 
        6824.78      1.20382e+7 
        6846.81      1.19659e+7 
        6890.86      1.18213e+7 
        6978.98      1.15344e+7 
        7025.03      1.13863e+7 
        7067.09      1.12524e+7 
        7109.15      1.11197e+7 
        7193.26      1.08607e+7 
        7277.38      1.06071e+7 
        7329.48      1.04528e+7 
         7361.5       1.0359e+7 
        7393.51      1.02669e+7 
        7457.55      1.00847e+7 
        7521.58       9.9056e+6 
        7585.61      9.72961e+6 
        7621.41      9.63253e+6 
        7649.65      9.55666e+6 
        7677.88      9.48136e+6 
        7734.35       9.3338e+6 
        7790.83      9.18853e+6 
         7847.3      9.04549e+6 
        7903.77      8.90469e+6 
        7958.24      8.77095e+6 
        7974.27      8.73218e+6 
         7990.3      8.69364e+6 
        8022.35      8.61704e+6 
        8082.55      8.47507e+6 
        8142.75      8.33596e+6 
        8200.85      8.20392e+6 
        8216.85      8.16808e+6 
        8232.84      8.13245e+6 
        8264.83      8.06161e+6 
        8289.72      8.00698e+6 
        8328.82      7.92187e+6 
        8343.44       7.8903e+6 
        8367.92      7.83771e+6 
        8388.68       7.7936e+6 
        8408.65      7.75147e+6 
        8432.02       7.7024e+6 
        8467.25      7.62904e+6 
        8502.48      7.55641e+6 
        8516.58      7.52766e+6 
        8530.98      7.49832e+6 
        8545.38      7.46911e+6 
        8574.18      7.41168e+6 
        8598.39      7.36314e+6 
         8628.6      7.30405e+6 
        8646.81      7.26836e+6 
        8665.01      7.23198e+6 
        8685.59      7.19305e+6 
        8701.43      7.16252e+6 
        8750.47      7.06679e+6 
        8767.92      7.03575e+6 
        8815.35      6.94685e+6 
        8862.78      6.85539e+6 
        8900.38      6.79228e+6 
        8957.65      6.69008e+6 
        9014.91      6.57749e+6 
        9044.62       6.5375e+6 
        9072.17      6.49094e+6 
        9099.72      6.44422e+6 
        9154.81      6.35189e+6 
         9190.8      6.29073e+6 
         9209.9      6.25623e+6 
        9224.23      6.22246e+6 
        9238.56      6.20483e+6 
        9257.67      6.18064e+6 
        9276.77      6.15221e+6 
        9314.99      6.09315e+6 
        9384.08      5.98546e+6 
        9453.18       5.8793e+6 
         9498.6      5.80752e+6 
        9510.44      5.78716e+6 
        9522.28      5.76457e+6 
        9534.12      5.73586e+6 
        9544.48      5.68289e+6 
        9554.85      5.69866e+6 
        9568.17      5.69458e+6 
        9580.01      5.68324e+6 
        9603.69       5.6543e+6 
        9633.67      5.61352e+6 
        9651.06      5.58924e+6 
        9668.45      5.56483e+6 
        9703.23      5.51642e+6 
        9772.79      5.42047e+6 
        9842.35      5.32604e+6 
           9871      5.28761e+6 
        9911.91      5.23279e+6 
        9952.82       5.1776e+6 
        9973.27      5.14945e+6 
        9993.73      5.11967e+6 
        10014.2      5.08536e+6 
        10027.3       5.0569e+6 
        10038.3      5.01923e+6 
        10048.4      4.91527e+6 
        10059.9      4.98731e+6 
        10074.7      4.99799e+6 
        10089.4      4.99165e+6 
        10104.1      4.97961e+6 
        10118.8      4.96472e+6 
        10148.3      4.93183e+6 
        10177.2      4.89799e+6 
        10207.2      4.86243e+6 
        10237.2      4.82681e+6 
        10297.2       4.7576e+6 
        10357.2       4.6893e+6 
        10417.2      4.62204e+6 
        10477.1      4.55572e+6 
        10537.1       4.4905e+6 
        10597.1      4.42632e+6 
        10657.1      4.36304e+6 
        10717.1      4.30056e+6 
        10777.1      4.23851e+6 
        10837.1      4.17521e+6 
        10856.1      4.15385e+6 
        10876.6      4.12821e+6 
        10886.8      4.11344e+6 
        10897.1      4.09576e+6 
        10907.3      4.07339e+6 
        10917.6      4.04075e+6 
        10927.8      3.97999e+6 
        10938.1      3.74516e+6 
        10950.6      3.96428e+6 
        10963.4      4.00226e+6 
        10973.7      4.01191e+6 
        10983.9      4.01323e+6 
        10994.2      4.01053e+6 
        11014.7      3.99865e+6 
        11055.7      3.96563e+6 
        11096.7      3.92932e+6 
        11178.7      3.85543e+6 
        11260.6      3.78241e+6 
        11270.6       3.7739e+6 
        11280.6      3.76542e+6 
        11300.6      3.74852e+6 
        11340.7      3.71493e+6 
        11420.7      3.64874e+6 
        11500.8      3.58393e+6 
        11580.9      3.52031e+6 
          11661      3.45792e+6 
          11741      3.39678e+6 
        11821.1      3.33687e+6 
        11901.2      3.27816e+6 
        11981.3       3.2206e+6 
        12061.3      3.16409e+6 
        12141.4      3.10878e+6 
        12158.4      3.09723e+6 
        12221.5      3.05458e+6 
        12284.6      3.01258e+6 
        12347.8      2.97291e+6 
        12410.9      2.93375e+6 
          12474      2.89504e+6 
        12537.2      2.85665e+6 
        12600.3      2.81827e+6 
        12663.4      2.77884e+6 
          12695       2.7576e+6 
        12726.6      2.73314e+6 
        12742.4      2.71819e+6 
        12758.1      2.69911e+6 
        12773.9      2.67172e+6 
        12789.7      2.62483e+6 
        12801.6      2.55545e+6 
        12812.4        2.396e+6 
        12823.2      2.37193e+6 
        12835.2      2.52666e+6 
        12846.3      2.58188e+6 
        12861.2       2.6148e+6 
          12876      2.62776e+6 
        12898.3      2.63128e+6 
        12913.1      2.62874e+6 
        12927.9      2.62437e+6 
        12957.6      2.61257e+6 
        13016.9      2.58432e+6 
        13076.3      2.55426e+6 
        13135.6      2.52388e+6 
        13194.9       2.4936e+6 
        13254.3      2.46361e+6 
        13308.4      2.43656e+6 
        13362.4      2.41093e+6 
        13416.5      2.38558e+6 
        13470.6      2.36051e+6 
        13524.7      2.33573e+6 
        13578.8      2.31124e+6 
        13632.9      2.28714e+6 
          13687       2.2632e+6 
        13741.1      2.23955e+6 
        13795.2      2.21624e+6 
        13849.3      2.19326e+6 
        13903.4      2.17054e+6 
        13957.4      2.14808e+6 
