# Koester WD models
# teff = 7250 K (value for the effective temperature for the model. Temperatures are given in K)
# logg = 7 log(cm/s2) (value for Log(G) for the model.)
#
# column 1: WAVELENGTH (ANGSTROM), Wavelength in Angstrom
# column 2: FLUX (ERG/CM2/S/A), Flux in erg/cm2/s/A
         899.23        0.765169 
        909.241         1.00397 
        919.251         3.02043 
        929.261         4.05042 
        939.271         11.8667 
         949.28         3.11093 
        959.289         28.8215 
        969.297         28.2716 
        979.305         44.9703 
        989.312         60.3604 
        999.319         76.2176 
        1009.33         92.2409 
        1019.33         91.7414 
        1029.34         99.4644 
        1039.34         168.783 
        1049.35         215.049 
        1059.36         258.988 
        1069.36         314.668 
        1079.36          373.79 
        1089.37         443.392 
        1099.37         520.219 
        1109.38         602.027 
        1119.38         705.448 
        1129.38         815.894 
        1139.39          923.92 
        1149.39         1021.04 
        1159.39         1079.83 
        1169.39         1105.24 
         1179.4         1075.15 
         1189.4         1093.79 
         1199.4         1162.49 
         1209.4         989.759 
        1219.41          1009.5 
        1229.41          1914.6 
        1239.41         2324.14 
        1249.41         2674.35 
        1259.41         3078.53 
        1269.41         3624.24 
        1279.42         4256.54 
        1289.42         4873.52 
        1299.42         5530.74 
        1309.42         6229.72 
        1319.42         6948.92 
        1329.42         7799.88 
        1339.42         8652.83 
        1349.42         9577.37 
        1359.42         10642.9 
        1369.42         11742.9 
        1379.42         12867.1 
        1389.42         14132.6 
        1399.42         15613.4 
        1409.42         17103.2 
        1419.42         18529.5 
        1429.42         20076.9 
        1439.42         21903.4 
        1454.42           25147 
        1464.42           27240 
        1476.35         29435.3 
        1487.11         31740.5 
        1499.42         34728.7 
        1509.42           37810 
        1524.42         42971.3 
        1536.92         47189.2 
        1549.42         50347.5 
        1559.42         52596.9 
        1570.19         55683.8 
        1584.41         60117.2 
        1599.41         65692.6 
        1611.91         71961.6 
        1624.41         80601.3 
        1636.91         92112.8 
        1649.41          108009 
        1661.91          132210 
        1673.25          166474 
        1683.35          222102 
         1693.4          347909 
         1704.4          613723 
         1717.4      1.01815e+6 
         1729.4      1.42722e+6 
        1740.65      1.77693e+6 
        1751.89       2.0357e+6 
        1764.39       2.2349e+6 
        1775.55      2.41528e+6 
        1785.64        2.664e+6 
        1796.89      2.91088e+6 
        1814.38      3.23355e+6 
           1834      3.61544e+6 
        1846.32      3.86378e+6 
        1856.32      4.19522e+6 
        1866.33      4.46235e+6 
        1877.77      4.71142e+6 
        1893.03      5.05649e+6 
        1908.28      5.41325e+6 
        1919.37       5.6795e+6 
        1930.46      5.96651e+6 
        1940.51      6.48243e+6 
        1950.56        6.911e+6 
        1963.38      7.23748e+6 
        1979.02      7.64211e+6 
        1999.87      8.19164e+6 
        2013.33      8.55283e+6 
        2024.54      8.96076e+6 
        2035.76      9.35076e+6 
        2046.97      9.63781e+6 
        2060.43      9.98329e+6 
        2080.23      1.04931e+7 
           2097      1.09262e+7 
        2116.25      1.14244e+7 
         2130.7      1.18157e+7 
        2145.14      1.22964e+7 
        2163.32      1.27357e+7 
        2180.57      1.31474e+7 
        2197.82      1.35572e+7 
         2214.7      1.39566e+7 
        2232.96       1.4382e+7 
        2248.43      1.47393e+7 
        2263.91      1.51526e+7 
        2279.39      1.55607e+7 
        2294.87      1.58933e+7 
        2307.57      1.61639e+7 
         2318.7      1.63963e+7 
        2329.83      1.66233e+7 
        2341.82      1.68666e+7 
        2352.09      1.70729e+7 
        2362.35      1.72778e+7 
        2382.89      1.76784e+7 
        2409.27      1.81829e+7 
        2451.59       1.8996e+7 
        2466.76      1.92525e+7 
        2488.39      1.96095e+7 
        2510.01      1.99769e+7 
         2547.3      2.05478e+7 
        2559.23      2.07249e+7 
        2571.17      2.08997e+7 
        2595.04      2.12412e+7 
        2627.89      2.17259e+7 
        2642.78      2.19125e+7 
        2657.67      2.20954e+7 
        2687.45      2.24374e+7 
        2737.93      2.29807e+7 
        2756.11      2.31653e+7 
        2766.75      2.32691e+7 
        2810.65      2.36762e+7 
        2854.55      2.40596e+7 
        2898.45      2.43764e+7 
        2931.71      2.45963e+7 
        2942.34       2.4663e+7 
        2952.98      2.47281e+7 
        2974.26      2.48493e+7 
        3016.81      2.50747e+7 
        3051.42      2.52394e+7 
        3091.41      2.54057e+7 
        3120.64      2.55163e+7 
        3149.86      2.56105e+7 
        3168.31      2.56613e+7 
         3208.3      2.57578e+7 
        3248.29       2.5836e+7 
        3309.83      2.59175e+7 
        3322.09      2.59291e+7 
        3346.73      2.59477e+7 
        3383.63      2.59633e+7 
        3445.17       2.5961e+7 
        3469.81      2.59496e+7 
        3495.92      2.59313e+7 
        3506.71      2.59213e+7 
         3543.6      2.58801e+7 
        3591.28      2.58094e+7 
        3635.88      2.57278e+7 
        3647.12      2.57038e+7 
        3658.96      2.56788e+7 
        3671.11      2.56524e+7 
        3682.58      2.56219e+7 
         3693.5      2.56108e+7 
        3703.57      2.55009e+7 
        3713.83      2.55927e+7 
        3724.38      2.56106e+7 
        3734.43      2.46301e+7 
        3744.65      2.57125e+7 
        3754.84      2.57753e+7 
        3765.87      2.56286e+7 
        3776.47      2.59039e+7 
         3787.4      2.62266e+7 
        3797.49      2.11323e+7 
        3807.58      2.64273e+7 
        3818.92       2.6816e+7 
        3829.97      2.51042e+7 
         3840.1      2.47273e+7 
        3850.38      2.70261e+7 
        3862.01      2.73549e+7 
        3872.59      2.70405e+7 
        3883.11      2.47342e+7 
        3893.29      2.34949e+7 
        3904.25      2.69862e+7 
        3914.88      2.75257e+7 
        3925.86      2.76182e+7 
        3937.35       2.7568e+7 
        3947.73      2.73057e+7 
        3958.09      2.62434e+7 
         3968.2      1.89257e+7 
        3978.69      2.52433e+7 
        3988.87      2.70221e+7 
        3999.92      2.74266e+7 
        4011.44      2.75083e+7 
        4022.97      2.75013e+7 
        4033.86      2.74712e+7 
        4048.86      2.74024e+7 
        4063.85      2.72649e+7 
        4075.42      2.69939e+7 
        4085.65      2.63101e+7 
        4095.76      2.32002e+7 
        4105.79      2.12886e+7 
        4115.93      2.59381e+7 
        4126.14      2.67258e+7 
        4138.83      2.69537e+7 
        4153.83      2.69764e+7 
        4168.82      2.69324e+7 
        4183.82      2.68708e+7 
        4198.82       2.6803e+7 
        4213.81      2.67311e+7 
        4224.95      2.66757e+7 
        4238.81      2.66042e+7 
         4253.8      2.65218e+7 
         4268.8        2.643e+7 
        4283.79      2.63177e+7 
        4298.79      2.61519e+7 
        4313.79      2.58046e+7 
        4324.82      2.50013e+7 
        4334.94       2.1537e+7 
        4345.27      2.07905e+7 
        4355.47      2.47688e+7 
        4367.98      2.55574e+7 
        4378.77      2.57022e+7 
        4393.77      2.57261e+7 
        4408.76      2.56841e+7 
        4423.76       2.5619e+7 
        4438.75       2.5544e+7 
        4453.75      2.54645e+7 
        4468.74      2.53828e+7 
        4483.74      2.52999e+7 
        4498.74      2.52337e+7 
        4513.73      2.51483e+7 
        4527.19      2.50712e+7 
        4538.73      2.50048e+7 
        4553.72      2.49182e+7 
        4568.72      2.48313e+7 
        4583.72       2.4744e+7 
        4596.53      2.46692e+7 
        4608.71      2.45979e+7 
         4623.7      2.45099e+7 
         4638.7      2.44215e+7 
         4653.7      2.43327e+7 
        4668.69      2.42437e+7 
        4683.69      2.41542e+7 
        4698.68      2.40641e+7 
        4713.68      2.39731e+7 
        4724.83      2.39048e+7 
        4738.67      2.38186e+7 
        4753.67      2.37229e+7 
        4768.67      2.36231e+7 
        4783.66      2.35158e+7 
        4798.66      2.33917e+7 
        4813.65      2.32268e+7 
        4828.65      2.29404e+7 
        4839.16      2.24907e+7 
        4850.22      2.10252e+7 
        4860.28      1.12469e+7 
        4870.86      2.04595e+7 
        4882.28      2.21793e+7 
        4892.79      2.25496e+7 
        4903.63      2.26577e+7 
        4915.55      2.26733e+7 
        4928.62      2.26414e+7 
        4943.62      2.25788e+7 
        4958.61       2.2504e+7 
        4973.61      2.24235e+7 
        4988.61      2.23399e+7 
         5003.6      2.22545e+7 
         5018.6      2.21679e+7 
         5033.6      2.20807e+7 
        5048.59      2.19931e+7 
        5063.59      2.19053e+7 
        5078.58      2.18174e+7 
        5093.58      2.17295e+7 
        5108.57      2.16416e+7 
        5123.57      2.15538e+7 
        5138.57      2.14661e+7 
        5153.56      2.13784e+7 
        5168.56      2.12909e+7 
        5183.56      2.12036e+7 
        5198.55      2.11163e+7 
        5213.55      2.10292e+7 
        5228.54      2.09423e+7 
        5243.54      2.08555e+7 
        5258.53      2.07689e+7 
        5273.53      2.06824e+7 
        5288.53      2.05962e+7 
        5303.52      2.05101e+7 
        5318.52      2.04242e+7 
        5333.52      2.03385e+7 
        5348.51      2.02531e+7 
        5363.51      2.01682e+7 
         5378.5      2.00831e+7 
         5393.5      1.99982e+7 
        5408.49      1.99135e+7 
        5423.49      1.98291e+7 
        5438.49      1.97448e+7 
        5453.48      1.96608e+7 
        5468.48      1.95771e+7 
        5483.48      1.94935e+7 
        5498.47      1.94102e+7 
        5513.47      1.93272e+7 
        5528.46      1.92443e+7 
        5543.46      1.91617e+7 
        5558.45      1.90794e+7 
        5573.45      1.89973e+7 
        5588.45      1.89155e+7 
        5603.44      1.88339e+7 
        5618.44      1.87526e+7 
        5633.43      1.86715e+7 
        5648.43      1.85907e+7 
        5663.43      1.85101e+7 
        5673.98      1.84536e+7 
         5686.2      1.83883e+7 
        5698.42      1.83232e+7 
        5708.88      1.82676e+7 
        5723.41      1.81906e+7 
        5738.41      1.81114e+7 
         5753.4      1.80325e+7 
         5768.4      1.79524e+7 
        5783.39       1.7874e+7 
        5798.39      1.77958e+7 
        5813.39      1.77179e+7 
        5828.38      1.76403e+7 
        5843.38       1.7563e+7 
        5858.37      1.74859e+7 
        5873.37      1.74092e+7 
        5888.37      1.73327e+7 
        5903.36      1.72565e+7 
        5918.36      1.71806e+7 
        5933.35      1.71049e+7 
        5948.35      1.70295e+7 
        5963.35      1.69544e+7 
        5978.34      1.68796e+7 
        5993.34      1.68051e+7 
        6008.33      1.67307e+7 
        6023.33      1.66567e+7 
        6038.32      1.65829e+7 
        6053.32      1.65096e+7 
        6068.32      1.64367e+7 
        6083.31       1.6364e+7 
        6098.31      1.62916e+7 
        6113.31      1.62195e+7 
         6128.3      1.61476e+7 
         6143.3       1.6076e+7 
        6158.29      1.60047e+7 
        6173.29      1.59336e+7 
        6188.28      1.58628e+7 
        6203.28      1.57922e+7 
        6218.28      1.57218e+7 
        6233.27      1.56517e+7 
        6244.38      1.55999e+7 
        6256.04      1.55456e+7 
        6266.59      1.54966e+7 
        6278.26      1.54425e+7 
        6290.52      1.53857e+7 
        6302.31      1.53312e+7 
        6312.59      1.52838e+7 
        6323.25      1.52346e+7 
        6338.24      1.51653e+7 
        6353.24      1.50961e+7 
        6368.24      1.50266e+7 
        6383.23      1.49567e+7 
        6398.23      1.48863e+7 
        6413.22      1.48148e+7 
        6428.22      1.47418e+7 
        6443.22      1.46661e+7 
        6458.21       1.4586e+7 
        6473.21      1.44984e+7 
         6488.2       1.4397e+7 
         6503.2      1.42675e+7 
         6518.2      1.40731e+7 
        6532.67      1.37175e+7 
        6543.19      1.31443e+7 
        6553.26      1.16876e+7 
        6563.29      7.29729e+6 
        6573.56      1.18936e+7 
        6583.68      1.30862e+7 
        6595.59      1.35481e+7 
         6608.5      1.37217e+7 
        6618.82      1.37709e+7 
        6629.14      1.37838e+7 
        6639.46       1.3777e+7 
        6649.78      1.37588e+7 
        6670.42      1.37038e+7 
        6711.48      1.35636e+7 
        6752.53      1.34103e+7 
        6824.78      1.31339e+7 
        6897.03      1.28602e+7 
        6969.28      1.25904e+7 
        7041.52      1.23253e+7 
        7109.15      1.20818e+7 
        7176.77      1.18449e+7 
        7244.39      1.16125e+7 
        7312.01      1.13844e+7 
        7365.75      1.12069e+7 
        7379.63      1.11614e+7 
        7393.51       1.1116e+7 
        7421.28      1.10266e+7 
         7476.8      1.08499e+7 
        7532.33      1.06761e+7 
        7587.85      1.05051e+7 
        7608.87      1.04411e+7 
        7643.38      1.03369e+7 
        7677.88      1.02338e+7 
        7746.89      1.00325e+7 
         7815.9      9.83523e+6 
        7884.91      9.64196e+6 
        7945.59      9.47533e+6 
        7962.25      9.43009e+6 
        7978.91      9.38535e+6 
        8012.23      9.29657e+6 
        8075.18       9.1312e+6 
        8089.92      9.09299e+6 
        8104.66      9.05501e+6 
        8134.14      8.97958e+6 
        8183.35      8.85511e+6 
        8200.85      8.81129e+6 
        8216.85      8.77161e+6 
        8232.84      8.73212e+6 
        8264.83      8.65371e+6 
        8289.72      8.59326e+6 
        8328.82      8.49914e+6 
        8343.44      8.46424e+6 
        8367.92      8.40612e+6 
        8388.68      8.35748e+6 
        8408.65      8.31102e+6 
        8432.02      8.25699e+6 
        8467.25       8.1754e+6 
        8502.48       8.0945e+6 
        8516.58      8.06463e+6 
        8530.98       8.0322e+6 
        8545.38      7.99689e+6 
        8574.18      7.93833e+6 
        8598.39      7.87798e+6 
         8628.6      7.82147e+6 
        8646.81      7.78169e+6 
        8665.01      7.72738e+6 
        8683.22      7.70476e+6 
        8701.43      7.66759e+6 
        8725.22      7.61607e+6 
        8737.85       7.5861e+6 
        8750.47      7.53181e+6 
        8763.09      7.53385e+6 
        8782.02      7.50008e+6 
        8799.19      7.46606e+6 
        8815.35      7.43235e+6 
        8831.51      7.39707e+6 
        8847.15      7.35868e+6 
        8858.87      7.31378e+6 
        8869.62      7.30219e+6 
        8884.28      7.28947e+6 
        8899.92      7.26493e+6 
        8931.19      7.20769e+6 
        8962.46      7.14464e+6 
        8972.56      7.12234e+6 
        8983.15      7.09686e+6 
        8993.74      7.06827e+6 
        9004.32      7.03142e+6 
        9014.91      6.91678e+6 
        9030.13      6.99095e+6 
        9040.71      6.98439e+6 
        9061.89      6.95706e+6 
        9083.06      6.92278e+6 
        9099.72      6.89372e+6 
        9133.03      6.83296e+6 
        9170.32      6.75964e+6 
           9185      6.72634e+6 
        9199.67      6.68682e+6 
        9214.34      6.63112e+6 
        9225.34      6.53998e+6 
        9235.43      6.54988e+6 
        9246.43      6.58073e+6 
        9268.44      6.57595e+6 
        9283.11      6.55936e+6 
        9312.45      6.51635e+6 
        9358.19      6.44124e+6 
        9371.14      6.41953e+6 
        9384.08      6.39776e+6 
        9409.98      6.35428e+6 
        9461.76       6.2649e+6 
        9481.11      6.22821e+6 
        9497.33      6.19293e+6 
        9513.54      6.14624e+6 
         9525.7      6.09296e+6 
        9535.83       6.0186e+6 
        9545.97      5.67959e+6 
        9558.63      5.99601e+6 
        9570.79      6.03487e+6 
           9587      6.04144e+6 
        9603.22       6.0295e+6 
        9619.43      6.01024e+6 
        9635.65      5.98825e+6 
        9667.69      5.94138e+6 
        9679.86      5.92322e+6 
        9692.02        5.905e+6 
        9716.36       5.8685e+6 
        9765.02       5.7957e+6 
        9862.36      5.65235e+6 
        9907.59      5.58581e+6 
         9930.2      5.55192e+6 
        9952.82      5.51698e+6 
        9975.43      5.47953e+6 
        9986.74      5.45845e+6 
        9998.05       5.4343e+6 
        10009.4      5.40404e+6 
        10020.7      5.36176e+6 
          10032      5.29088e+6 
        10043.3      5.11891e+6 
        10054.1      5.04609e+6 
        10066.1      5.23408e+6 
        10076.4      5.27762e+6 
        10090.1      5.29434e+6 
        10103.8      5.29283e+6 
        10117.6      5.28312e+6 
          10145      5.25491e+6 
        10162.6      5.23408e+6 
        10199.9      5.18774e+6 
        10237.2      5.14027e+6 
        10311.8       5.0476e+6 
        10386.3      4.95637e+6 
        10460.9       4.8667e+6 
        10535.5      4.77893e+6 
        10610.1      4.69285e+6 
        10684.7      4.60818e+6 
        10759.3      4.52421e+6 
        10796.5      4.48167e+6 
        10833.8        4.437e+6 
        10852.5       4.4124e+6 
        10871.1      4.38365e+6 
        10889.8      4.34526e+6 
        10903.8       4.3004e+6 
        10917.7       4.2147e+6 
        10928.2      4.06469e+6 
        10938.3      3.29179e+6 
          10949      4.05331e+6 
        10960.7       4.1829e+6 
        10976.3      4.23421e+6 
        10991.8      4.24593e+6 
        11007.4      4.24329e+6 
        11022.9      4.23474e+6 
        11054.1      4.21008e+6 
        11085.2      4.18177e+6 
        11116.3      4.15227e+6 
        11178.5       4.0924e+6 
        11220.7      4.05193e+6 
        11240.8      4.03271e+6 
        11260.9      4.01354e+6 
        11301.1      3.97694e+6 
        11381.6      3.90478e+6 
        11462.1      3.83413e+6 
        11542.6      3.76473e+6 
          11623      3.69671e+6 
        11703.5      3.63008e+6 
          11784       3.5648e+6 
        11864.5      3.50083e+6 
        11944.9      3.43816e+6 
        12025.4      3.37665e+6 
        12105.9      3.31645e+6 
        12186.3      3.25745e+6 
          12249      3.21234e+6 
        12266.8      3.19962e+6 
        12284.6      3.18696e+6 
        12320.3      3.16277e+6 
        12391.5      3.11493e+6 
        12462.8      3.06772e+6 
        12534.1       3.0209e+6 
        12605.4      2.97386e+6 
          12641      2.94965e+6 
        12676.6      2.92406e+6 
        12712.3      2.89476e+6 
        12730.4      2.87653e+6 
        12747.9      2.85402e+6 
        12765.4      2.82197e+6 
        12778.6      2.78442e+6 
        12789.6      2.73403e+6 
          12800      2.64857e+6 
        12810.4      2.44542e+6 
        12820.8      2.16709e+6 
        12831.2      2.55176e+6 
        12844.4      2.68472e+6 
        12857.5      2.73517e+6 
        12870.7      2.75784e+6 
        12888.2       2.7694e+6 
        12905.8      2.77112e+6 
        12923.3      2.76794e+6 
        12958.4      2.75495e+6 
        12993.5       2.7382e+6 
