# Koester WD models
# teff = 7250 K (value for the effective temperature for the model. Temperatures are given in K)
# logg = 7.25 log(cm/s2) (value for Log(G) for the model.)
#
# column 1: WAVELENGTH (ANGSTROM), Wavelength in Angstrom
# column 2: FLUX (ERG/CM2/S/A), Flux in erg/cm2/s/A
         899.23        0.892762 
        909.241          1.1694 
        919.251         3.14876 
        929.261         4.36791 
        939.271         11.8893 
         949.28         3.56436 
        959.289          27.808 
        969.297         28.3632 
        979.305         44.0109 
        989.312         58.4157 
        999.319         73.8692 
        1009.33         90.2111 
        1019.33         91.7882 
        1029.34         99.7632 
        1039.34         166.819 
        1049.35         211.357 
        1059.36         254.559 
        1069.36         308.336 
        1079.36         366.193 
        1089.37         433.468 
        1099.37         508.438 
        1109.38         588.593 
        1119.38         689.561 
        1129.38         797.757 
        1139.39         904.574 
        1149.39         1002.37 
        1159.39         1064.39 
        1169.39         1090.75 
         1179.4         1058.73 
         1189.4         1076.91 
         1199.4         1146.69 
         1209.4         993.302 
        1219.41         1023.79 
        1229.41         1887.82 
        1239.41         2291.79 
        1249.41         2637.68 
        1259.41         3037.89 
        1269.41         3580.13 
        1279.42          4208.6 
        1289.42         4819.93 
        1299.42         5471.49 
        1309.42          6163.8 
        1319.42         6875.41 
        1329.42         7717.92 
        1339.42         8562.57 
        1349.42         9478.12 
        1359.42         10532.2 
        1369.42         11620.6 
        1379.42         12734.9 
        1389.42         13988.3 
        1399.42         15450.9 
        1409.42         16923.9 
        1419.42         18340.9 
        1429.42           19877 
        1439.42         21685.3 
        1454.42         24887.9 
        1464.42         26962.9 
        1476.35         29151.2 
        1487.11         31433.5 
        1499.42         34393.2 
        1509.42         37445.9 
        1524.42         42553.5 
        1536.92         46731.5 
        1549.42         49876.2 
        1559.42         52098.6 
        1570.19         55149.4 
        1584.41         59538.8 
        1599.41         65047.6 
        1611.91           71278 
        1624.41         79856.1 
        1636.91         91255.4 
        1649.41          106613 
        1661.91          129020 
        1673.25          158468 
        1683.35          201070 
         1693.4          291287 
        1704.35          480767 
         1714.4          711574 
         1724.8          988339 
         1735.6      1.27914e+6 
         1746.6      1.53301e+6 
        1758.19      1.71242e+6 
        1769.39      1.86349e+6 
        1780.02      2.02196e+6 
        1790.64      2.28997e+6 
        1804.39      2.51133e+6 
        1824.38      2.85255e+6 
        1834.77      3.03751e+6 
        1846.32      3.24951e+6 
        1856.32      3.55603e+6 
        1866.33      3.80566e+6 
        1877.77      4.03996e+6 
        1893.03      4.36741e+6 
        1908.28      4.70887e+6 
        1919.37      4.96497e+6 
        1930.46      5.24146e+6 
        1940.51      5.75342e+6 
        1950.56      6.18699e+6 
        1963.38      6.50863e+6 
        1979.02      6.90912e+6 
        1999.87       7.4566e+6 
        2013.33      7.81864e+6 
        2024.54      8.23518e+6 
        2034.64      8.60379e+6 
        2044.73      8.86422e+6 
        2054.82      9.12598e+6 
        2067.03      9.44407e+6 
        2077.99      9.73181e+6 
        2099.89      1.03127e+7 
        2116.25       1.0749e+7 
        2132.47      1.12299e+7 
        2148.97       1.1759e+7 
        2165.42      1.21717e+7 
        2178.22      1.24892e+7 
        2191.02      1.28067e+7 
         2214.7      1.33923e+7 
        2260.18      1.45079e+7 
        2271.38       1.4907e+7 
        2281.93      1.51488e+7 
        2297.53      1.55049e+7 
        2313.13      1.58591e+7 
        2326.33      1.61453e+7 
        2344.34      1.65329e+7 
        2362.35       1.6916e+7 
        2387.49      1.74357e+7 
        2398.38      1.76583e+7 
        2409.27      1.78784e+7 
        2420.17       1.8102e+7 
        2431.06      1.83756e+7 
        2441.95      1.85749e+7 
        2452.85      1.87719e+7 
        2466.76      1.90221e+7 
        2488.39       1.9402e+7 
        2510.01      1.97925e+7 
         2547.3      2.04004e+7 
        2559.23      2.05894e+7 
        2571.17      2.07771e+7 
        2595.04      2.11448e+7 
        2627.89      2.16721e+7 
        2642.78      2.18727e+7 
        2657.67      2.20695e+7 
        2687.45       2.2435e+7 
        2737.93      2.30171e+7 
        2756.11      2.32154e+7 
        2766.75      2.33271e+7 
        2810.65      2.37662e+7 
        2854.55      2.41826e+7 
        2898.45      2.45254e+7 
        2931.71      2.47643e+7 
        2942.34       2.4837e+7 
        2952.98       2.4908e+7 
        2974.26      2.50408e+7 
        3016.81      2.52861e+7 
        3051.42      2.54658e+7 
        3091.41      2.56487e+7 
        3120.64      2.57715e+7 
        3149.86       2.5876e+7 
        3168.31      2.59324e+7 
         3208.3      2.60404e+7 
        3248.29      2.61293e+7 
        3309.83      2.62239e+7 
        3322.09      2.62379e+7 
        3346.73       2.6261e+7 
        3383.63       2.6283e+7 
        3445.17      2.62899e+7 
        3469.81      2.62817e+7 
        3495.92      2.62664e+7 
        3506.71      2.62575e+7 
         3543.6      2.62194e+7 
        3591.28      2.61541e+7 
        3635.88      2.60779e+7 
        3647.12      2.60552e+7 
        3658.96      2.60316e+7 
        3671.11      2.60063e+7 
        3682.58      2.59791e+7 
         3693.5      2.59626e+7 
        3703.57      2.58914e+7 
        3713.83      2.59317e+7 
        3724.38      2.59342e+7 
        3734.43      2.53401e+7 
        3744.62      2.59798e+7 
        3754.84      2.60226e+7 
        3765.07      2.59799e+7 
        3775.34      2.59956e+7 
        3785.37      2.63605e+7 
        3795.44      2.50513e+7 
        3806.47      2.63675e+7 
        3816.64      2.67932e+7 
        3826.77      2.61622e+7 
        3836.78      2.27184e+7 
        3847.23      2.67017e+7 
         3857.3      2.72107e+7 
        3867.68      2.71845e+7 
        3877.92      2.63909e+7 
        3887.94      1.99563e+7 
        3898.89      2.61449e+7 
         3909.6      2.72716e+7 
        3920.31      2.74829e+7 
         3930.9      2.75017e+7 
        3941.96      2.73864e+7 
        3952.78      2.68994e+7 
         3963.2      2.46286e+7 
        3973.55      2.19153e+7 
         3984.1      2.64813e+7 
        3995.11      2.72263e+7 
        4008.53      2.74029e+7 
        4018.86      2.74115e+7 
        4032.38      2.73823e+7 
        4043.86       2.7338e+7 
        4058.85       2.7237e+7 
        4073.85       2.6969e+7 
        4085.65      2.62523e+7 
        4095.76      2.32489e+7 
        4105.79      2.13914e+7 
        4116.22      2.59272e+7 
        4126.69      2.66741e+7 
        4138.83      2.68796e+7 
        4153.83      2.69042e+7 
        4168.82      2.68627e+7 
        4183.82      2.68034e+7 
        4198.82      2.67378e+7 
        4213.81      2.66681e+7 
        4224.95      2.66143e+7 
        4238.81      2.65446e+7 
         4253.8      2.64642e+7 
         4268.8      2.63742e+7 
        4283.79      2.62637e+7 
        4298.79      2.61004e+7 
        4313.79      2.57564e+7 
        4324.82      2.49597e+7 
        4334.94      2.15256e+7 
        4345.12      2.06214e+7 
        4356.08      2.48045e+7 
        4367.98      2.55142e+7 
        4378.77        2.566e+7 
        4393.77      2.56854e+7 
        4408.76      2.56454e+7 
        4423.76      2.55822e+7 
        4438.75      2.55089e+7 
        4453.75      2.54312e+7 
        4468.74      2.53512e+7 
        4483.74      2.52699e+7 
        4498.74      2.52084e+7 
        4513.73      2.51245e+7 
        4527.19      2.50487e+7 
        4538.73      2.49834e+7 
        4553.72      2.48982e+7 
        4568.72      2.48126e+7 
        4583.72      2.47267e+7 
        4596.53       2.4653e+7 
        4608.71      2.45829e+7 
         4623.7      2.44961e+7 
         4638.7       2.4409e+7 
         4653.7      2.43215e+7 
        4668.69      2.42336e+7 
        4683.69      2.41453e+7 
        4698.68      2.40564e+7 
        4713.68      2.39665e+7 
        4724.83      2.38989e+7 
        4738.67      2.38137e+7 
        4753.67      2.37189e+7 
        4768.67      2.36199e+7 
        4783.66      2.35132e+7 
        4798.66      2.33892e+7 
        4813.65      2.32236e+7 
        4828.65      2.29345e+7 
        4839.16      2.24779e+7 
        4850.22      2.09877e+7 
        4860.28      1.12419e+7 
        4870.29      2.02092e+7 
        4880.32      2.20263e+7 
        4893.63      2.25614e+7 
        4908.63      2.26752e+7 
         4921.7      2.26676e+7 
        4933.62      2.26296e+7 
        4948.62      2.25633e+7 
        4963.61      2.24875e+7 
        4978.61      2.24069e+7 
        4993.61      2.23237e+7 
         5008.6      2.22388e+7 
         5023.6      2.21528e+7 
        5038.59      2.20663e+7 
        5053.59      2.19793e+7 
        5068.59      2.18923e+7 
        5083.58      2.18051e+7 
        5098.58      2.17179e+7 
        5113.57      2.16307e+7 
        5128.57      2.15436e+7 
        5143.57      2.14565e+7 
        5158.56      2.13696e+7 
        5173.56      2.12827e+7 
        5188.55      2.11959e+7 
        5203.55      2.11093e+7 
        5218.55      2.10229e+7 
        5233.54      2.09365e+7 
        5248.54      2.08504e+7 
        5263.53      2.07644e+7 
        5278.53      2.06785e+7 
        5293.52      2.05928e+7 
        5308.52      2.05073e+7 
        5323.52       2.0422e+7 
        5338.51      2.03369e+7 
        5353.51       2.0252e+7 
        5368.51      2.01677e+7 
         5383.5      2.00831e+7 
         5398.5      1.99987e+7 
        5413.49      1.99145e+7 
        5428.49      1.98305e+7 
        5443.48      1.97467e+7 
        5458.48      1.96632e+7 
        5473.48      1.95799e+7 
        5488.47      1.94968e+7 
        5503.47      1.94139e+7 
        5518.47      1.93313e+7 
        5533.46      1.92489e+7 
        5548.46      1.91668e+7 
        5563.45      1.90849e+7 
        5578.45      1.90032e+7 
        5593.44      1.89218e+7 
        5608.44      1.88406e+7 
        5623.44      1.87597e+7 
        5638.43       1.8679e+7 
        5653.43      1.85986e+7 
        5668.43      1.85185e+7 
        5682.86      1.84415e+7 
        5693.42      1.83854e+7 
        5704.77      1.83252e+7 
        5715.23      1.82699e+7 
        5728.41      1.82004e+7 
         5743.4      1.81215e+7 
         5758.4       1.8043e+7 
         5773.4      1.79629e+7 
        5788.39      1.78848e+7 
        5803.39       1.7807e+7 
        5818.39      1.77294e+7 
        5833.38      1.76521e+7 
        5848.38       1.7575e+7 
        5863.37      1.74983e+7 
        5878.37      1.74218e+7 
        5893.36      1.73456e+7 
        5908.36      1.72696e+7 
        5923.36       1.7194e+7 
        5938.35      1.71186e+7 
        5953.35      1.70435e+7 
        5968.34      1.69686e+7 
        5983.34       1.6894e+7 
        5998.34      1.68197e+7 
        6013.33      1.67458e+7 
        6028.33       1.6672e+7 
        6043.32      1.65986e+7 
        6058.32      1.65254e+7 
        6073.32      1.64525e+7 
        6088.31      1.63798e+7 
        6103.31      1.63074e+7 
         6118.3      1.62352e+7 
         6133.3      1.61634e+7 
         6148.3      1.60917e+7 
        6163.29      1.60204e+7 
        6178.29      1.59492e+7 
        6193.28      1.58783e+7 
        6208.28      1.58077e+7 
        6223.28      1.57372e+7 
        6238.27       1.5667e+7 
        6252.16      1.56021e+7 
        6262.16      1.55555e+7 
        6273.26      1.55038e+7 
        6284.63       1.5451e+7 
        6295.99      1.53982e+7 
        6306.09      1.53514e+7 
        6316.22      1.53044e+7 
        6328.25      1.52486e+7 
        6343.24       1.5179e+7 
        6358.24      1.51093e+7 
        6373.23      1.50392e+7 
        6388.23      1.49686e+7 
        6403.23      1.48971e+7 
        6418.22      1.48242e+7 
        6433.22      1.47492e+7 
        6448.22      1.46706e+7 
        6463.21      1.45862e+7 
        6478.21      1.44915e+7 
         6493.2      1.43775e+7 
         6508.2       1.4223e+7 
        6523.19      1.39708e+7 
        6537.09      1.34854e+7 
        6548.06      1.25337e+7 
        6558.19      9.70378e+6 
        6568.58      1.02171e+7 
        6579.69      1.26798e+7 
        6590.04      1.33531e+7 
        6603.34      1.36674e+7 
        6613.66      1.37595e+7 
        6623.98      1.37956e+7 
         6634.3      1.38025e+7 
        6644.62      1.37928e+7 
        6665.26      1.37474e+7 
         6685.9      1.36845e+7 
        6701.62      1.36309e+7 
        6721.34      1.35601e+7 
         6736.2      1.35051e+7 
        6780.49      1.33375e+7 
        6824.78       1.3168e+7 
        6913.35      1.28328e+7 
        7001.93      1.25034e+7 
        7071.86      1.22485e+7 
         7090.5      1.21814e+7 
        7109.15      1.21145e+7 
        7146.44      1.19831e+7 
        7221.02      1.17242e+7 
         7295.6      1.14707e+7 
        7346.84      1.12996e+7 
        7370.18      1.12232e+7 
        7393.51      1.11466e+7 
        7440.19      1.09964e+7 
        7533.55      1.07019e+7 
        7575.92      1.05709e+7 
         7626.9      1.04154e+7 
        7677.88      1.02623e+7 
        7728.86      1.01128e+7 
        7779.84      9.96554e+6 
        7830.82      9.82049e+6 
         7881.8      9.67764e+6 
        7903.32      9.61799e+6 
        7932.78      9.53693e+6 
        7962.25      9.45657e+6 
        8021.18      9.29896e+6 
        8077.68      9.15042e+6 
        8097.18      9.09987e+6 
        8108.49      9.07069e+6 
        8155.67      8.95015e+6 
        8200.85      8.83626e+6 
        8216.85      8.79646e+6 
        8232.84      8.75688e+6 
        8264.83       8.6783e+6 
        8289.72      8.61767e+6 
        8328.82      8.52333e+6 
        8343.44      8.48833e+6 
        8367.92      8.43009e+6 
        8388.68       8.3813e+6 
        8408.65      8.33468e+6 
        8432.02      8.28045e+6 
        8467.25      8.19896e+6 
        8502.48      8.11822e+6 
        8516.58      8.08746e+6 
        8530.98      8.05501e+6 
        8545.38      8.02108e+6 
        8574.18      7.96039e+6 
        8598.39      7.90296e+6 
         8628.6       7.8427e+6 
        8646.81      7.80321e+6 
        8665.01      7.75449e+6 
        8701.43      7.68785e+6 
        8725.22      7.63687e+6 
        8737.85      7.60834e+6 
        8750.47       7.5632e+6 
        8763.09      7.55588e+6 
        8775.71      7.53206e+6 
        8788.34      7.50693e+6 
        8811.81      7.45861e+6 
        8825.96      7.42896e+6 
        8840.11      7.39798e+6 
        8851.45      7.37024e+6 
        8862.78      7.31203e+6 
        8874.12      7.32522e+6 
        8885.45      7.30844e+6 
        8902.46      7.27876e+6 
        8925.13      7.23631e+6 
        8948.26      7.19089e+6 
        8970.48      7.14496e+6 
        8981.58      7.12029e+6 
        8992.69      7.09346e+6 
         9003.8      7.06129e+6 
        9014.91      6.97248e+6 
        9028.79      7.01706e+6 
         9039.9      7.00591e+6 
        9051.01      6.99058e+6 
        9062.11       6.9732e+6 
        9084.33      6.93551e+6 
        9099.72      6.90814e+6 
        9130.49      6.85191e+6 
        9155.06      6.80532e+6 
        9173.55      6.76815e+6 
        9192.03      6.72665e+6 
        9210.52      6.67387e+6 
        9222.08      6.61959e+6 
        9232.16      6.56495e+6 
        9244.95      6.60664e+6 
        9257.75      6.60287e+6 
        9270.55      6.59053e+6 
        9296.14      6.55528e+6 
        9310.57      6.53285e+6 
        9347.33      6.47231e+6 
        9384.08      6.41048e+6 
        9420.84      6.34856e+6 
         9457.6       6.2852e+6 
        9475.98      6.25158e+6 
        9494.35      6.21451e+6 
        9512.73      6.16729e+6 
        9523.69      6.12765e+6 
        9534.83      6.06525e+6 
        9545.04      5.84685e+6 
        9556.87      6.02344e+6 
        9568.01      6.05319e+6 
        9582.86      6.05903e+6 
        9597.72      6.04876e+6 
        9612.57      6.03176e+6 
        9627.42       6.0121e+6 
        9645.81      5.98577e+6 
        9657.13      5.96906e+6 
        9668.45      5.95212e+6 
        9691.09      5.91816e+6 
        9736.37      5.85015e+6 
        9826.94      5.71556e+6 
        9882.19      5.63454e+6 
         9917.5       5.5823e+6 
        9952.82      5.52832e+6 
        9970.48      5.49977e+6 
        9988.14      5.46791e+6 
        10005.8      5.42811e+6 
          10017      5.39408e+6 
        10029.9      5.33113e+6 
        10041.3      5.21589e+6 
        10051.3      4.99579e+6 
        10063.3      5.24354e+6 
        10079.3      5.30065e+6 
        10098.5      5.30738e+6 
        10111.3       5.2999e+6 
        10136.9      5.27502e+6 
        10162.5      5.24495e+6 
        10188.1      5.21322e+6 
        10237.2      5.15074e+6 
        10335.4      5.02872e+6 
        10433.6      4.90943e+6 
        10531.9      4.79297e+6 
        10630.1      4.67959e+6 
        10728.3      4.56841e+6 
        10777.4       4.5128e+6 
          10802      4.48453e+6 
        10826.5      4.45525e+6 
        10851.1      4.42358e+6 
        10863.3      4.40574e+6 
        10875.6      4.38525e+6 
        10887.9      4.36009e+6 
        10900.2      4.32547e+6 
        10912.5       4.2699e+6 
        10924.7      4.15642e+6 
        10935.1      3.83406e+6 
        10945.7      4.01009e+6 
        10956.7       4.1709e+6 
        10968.8      4.22959e+6 
        10988.3      4.25438e+6 
        11007.8       4.2518e+6 
        11027.3      4.24014e+6 
        11066.2      4.20744e+6 
        11105.2       4.1709e+6 
        11183.1      4.09576e+6 
        11260.9      4.02102e+6 
        11338.7      3.95024e+6 
        11416.5      3.88075e+6 
        11494.4      3.81267e+6 
        11572.2      3.74582e+6 
          11650      3.68028e+6 
        11727.8        3.616e+6 
        11805.6      3.55302e+6 
        11883.4      3.49125e+6 
        11961.3      3.43071e+6 
        12039.1      3.37124e+6 
        12116.9        3.313e+6 
        12194.7      3.25592e+6 
        12260.4      3.20854e+6 
        12272.5       3.1999e+6 
        12284.6      3.19129e+6 
        12308.8       3.1748e+6 
        12357.2      3.14203e+6 
        12453.9       3.0774e+6 
        12550.7      3.01355e+6 
          12599      2.98148e+6 
        12647.4      2.94842e+6 
        12670.2      2.93199e+6 
        12695.8      2.91211e+6 
        12707.2      2.90236e+6 
        12725.6      2.88453e+6 
        12744.1      2.86232e+6 
        12762.6      2.83103e+6 
        12776.5      2.79457e+6 
          12788      2.74627e+6 
        12798.4      2.67027e+6 
        12808.8      2.50489e+6 
          12819       2.0253e+6 
        12830.6      2.54655e+6 
        12841.8      2.67152e+6 
        12854.6       2.7295e+6 
        12867.4      2.75588e+6 
        12880.2      2.76812e+6 
          12893      2.77292e+6 
        12905.8      2.77351e+6 
        12918.6      2.77156e+6 
