# Koester WD models
# teff = 7500 K (value for the effective temperature for the model. Temperatures are given in K)
# logg = 7.5 log(cm/s2) (value for Log(G) for the model.)
#
# column 1: WAVELENGTH (ANGSTROM), Wavelength in Angstrom
# column 2: FLUX (ERG/CM2/S/A), Flux in erg/cm2/s/A
         899.23         1.77648 
        909.241         2.30942 
        919.251         6.46053 
        929.261          9.2758 
        939.271         26.9782 
         949.28         6.89734 
        959.289         66.5644 
        969.297         61.6424 
        979.305         101.273 
        989.312         144.371 
        999.319         183.871 
        1009.33         214.391 
        1019.33         193.504 
        1029.34         207.174 
        1039.34         372.854 
        1049.35         484.091 
        1059.36         576.649 
        1069.36         700.311 
        1079.36          822.29 
        1089.37         969.131 
        1099.37          1124.5 
        1109.38         1284.49 
        1119.38         1492.56 
        1129.38         1708.67 
        1139.39         1908.27 
        1149.39         2072.84 
        1159.39         2146.57 
        1169.39         2156.44 
         1179.4         2085.49 
         1189.4         2123.12 
         1199.4         2252.95 
         1209.4         1939.31 
        1219.41         1974.58 
        1229.41         3622.95 
        1239.41         4369.08 
        1249.41         4998.56 
        1259.41         5728.76 
        1269.41          6707.3 
        1279.42         7853.98 
        1289.42         8958.72 
        1299.42         10140.9 
        1309.42         11377.5 
        1319.42         12636.5 
        1329.42         14139.2 
        1339.42         15620.9 
        1349.42         17216.1 
        1359.42         19057.6 
        1369.42         20955.7 
        1379.42         22848.9 
        1389.42         24983.9 
        1399.42         27539.1 
        1409.42         30070.6 
        1419.42           32376 
        1429.42         34882.4 
        1439.42         37960.2 
        1454.42         43482.8 
        1464.42         46856.9 
        1476.35         50196.1 
        1487.11           53894 
        1499.42         58789.6 
        1509.42         63922.6 
        1524.42         72411.8 
        1536.92         79073.6 
        1549.42         83669.4 
        1559.42         86915.3 
        1570.19         91716.6 
        1584.41         98491.1 
        1599.41          107149 
        1611.91          117024 
        1624.41          130807 
        1636.91          149496 
        1649.41          175655 
        1661.91          216052 
        1673.25          274952 
        1683.61          375753 
         1694.4          608834 
        1706.48      1.07683e+6 
         1716.9      1.56082e+6 
         1729.4      2.15961e+6 
         1741.9      2.70553e+6 
        1754.39      3.09773e+6 
        1767.08      3.37875e+6 
        1778.14      3.62728e+6 
        1788.76      4.04405e+6 
        1799.39      4.31425e+6 
        1814.38      4.69181e+6 
           1834      5.20534e+6 
        1846.32      5.53671e+6 
        1856.32      5.98087e+6 
        1866.33      6.33675e+6 
        1877.77      6.66709e+6 
        1893.03      7.12366e+6 
         1906.2      7.52946e+6 
        1919.37      7.94537e+6 
        1930.89      8.34784e+6 
        1940.98      8.96447e+6 
        1951.06      9.44325e+6 
        1961.52      9.78345e+6 
        1975.66      1.02496e+7 
         1989.8      1.07202e+7 
        2005.51       1.1251e+7 
        2017.81      1.16715e+7 
        2028.58      1.22838e+7 
        2039.35      1.26525e+7 
        2050.11      1.29998e+7 
        2060.88      1.33468e+7 
        2073.38      1.37497e+7 
        2092.58      1.43683e+7 
        2104.41      1.47491e+7 
        2116.25      1.51294e+7 
        2128.09      1.55065e+7 
        2139.93      1.60604e+7 
        2151.77      1.64143e+7 
        2163.61      1.67661e+7 
        2176.69      1.71496e+7 
        2191.63      1.75852e+7 
         2214.7      1.82516e+7 
        2257.72      1.94602e+7 
        2273.21      2.00496e+7 
        2285.61      2.03738e+7 
        2298.01      2.06954e+7 
        2313.13      2.10835e+7 
        2324.43      2.13605e+7 
        2343.39      2.18197e+7 
        2362.35       2.2271e+7 
        2391.29      2.29355e+7 
        2409.27      2.33383e+7 
        2427.25      2.37919e+7 
        2445.23      2.41706e+7 
        2456.19      2.43867e+7 
        2466.76      2.45939e+7 
        2488.39      2.50059e+7 
        2510.01      2.54316e+7 
         2547.3      2.60812e+7 
        2559.23      2.62817e+7 
        2571.17      2.64796e+7 
        2595.04      2.68645e+7 
        2627.89      2.74152e+7 
        2642.78       2.7622e+7 
        2657.67      2.78237e+7 
        2687.45      2.81962e+7 
        2737.93      2.87806e+7 
        2756.11      2.89771e+7 
        2766.75      2.90868e+7 
        2810.65      2.95131e+7 
        2854.55      2.99109e+7 
        2898.45      3.02255e+7 
        2931.71       3.0439e+7 
        2942.34      3.05029e+7 
        2952.98      3.05649e+7 
        2974.26      3.06791e+7 
        3016.81      3.08835e+7 
        3051.42      3.10267e+7 
        3091.41      3.11638e+7 
        3120.64      3.12518e+7 
        3149.86        3.132e+7 
        3168.31      3.13524e+7 
         3208.3      3.14068e+7 
        3248.29      3.14398e+7 
        3309.83      3.14445e+7 
        3322.09      3.14401e+7 
        3346.73      3.14257e+7 
        3383.63      3.13906e+7 
        3445.17      3.12998e+7 
        3469.81      3.12518e+7 
        3495.92      3.11941e+7 
        3506.71      3.11675e+7 
         3543.6      3.10694e+7 
        3591.28      3.09251e+7 
        3635.88      3.07733e+7 
        3647.12      3.07313e+7 
        3658.96      3.06876e+7 
        3671.11      3.06412e+7 
        3682.58      3.05951e+7 
         3693.5      3.05578e+7 
        3703.57      3.04849e+7 
        3713.83      3.04858e+7 
        3724.38       3.0469e+7 
        3734.43      3.00107e+7 
        3744.62      3.04808e+7 
        3754.84      3.04994e+7 
        3765.07      3.04423e+7 
         3775.5      3.04593e+7 
        3786.22      3.07808e+7 
        3796.54      2.86614e+7 
        3808.48      3.09954e+7 
        3818.92      3.12152e+7 
        3829.97      2.96469e+7 
        3840.23      2.93721e+7 
        3850.38      3.14571e+7 
        3862.01      3.18105e+7 
        3872.59      3.13977e+7 
        3883.11      2.88926e+7 
        3893.13      2.74848e+7 
        3904.25      3.13371e+7 
        3916.01      3.20769e+7 
        3928.22      3.21894e+7 
        3938.89      3.20782e+7 
        3950.65      3.14762e+7 
        3961.37      2.91725e+7 
        3971.45       2.0364e+7 
        3982.23      3.02092e+7 
        3993.38      3.16553e+7 
        4003.87      3.20131e+7 
        4018.18      3.20936e+7 
        4028.86      3.20731e+7 
        4043.86      3.19968e+7 
        4058.85      3.18347e+7 
        4073.85      3.13896e+7 
        4083.99      3.05316e+7 
        4094.51      2.71833e+7 
        4104.69      2.20761e+7 
        4115.17       2.9576e+7 
        4126.14      3.09265e+7 
        4138.83       3.1326e+7 
        4153.83       3.1404e+7 
        4168.82       3.1361e+7 
        4183.82      3.12854e+7 
        4198.82      3.11986e+7 
        4213.81      3.11049e+7 
        4224.95      3.10321e+7 
        4238.81      3.09372e+7 
         4253.8      3.08262e+7 
         4268.8      3.06977e+7 
        4283.79      3.05312e+7 
        4298.79      3.02746e+7 
        4313.79        2.972e+7 
        4324.82      2.85103e+7 
        4334.94      2.40015e+7 
        4345.08      2.28107e+7 
        4356.08      2.83043e+7 
        4368.77      2.94431e+7 
        4383.77      2.97274e+7 
        4398.76      2.97563e+7 
        4413.76      2.97076e+7 
        4428.76       2.9626e+7 
        4443.75      2.95302e+7 
        4458.75      2.94286e+7 
        4473.74      2.93243e+7 
        4488.74      2.92184e+7 
        4503.74      2.91343e+7 
        4514.12      2.90589e+7 
        4527.19      2.89636e+7 
        4538.73      2.88792e+7 
        4553.72      2.87692e+7 
        4568.72      2.86588e+7 
        4583.72      2.85481e+7 
        4596.53      2.84532e+7 
        4608.71      2.83631e+7 
         4623.7      2.82516e+7 
         4638.7      2.81397e+7 
         4653.7      2.80276e+7 
        4668.69       2.7915e+7 
        4683.69      2.78018e+7 
        4698.68      2.76877e+7 
        4713.68      2.75724e+7 
        4724.83      2.74854e+7 
        4738.67      2.73752e+7 
        4753.67      2.72517e+7 
        4768.67      2.71208e+7 
        4783.66       2.6977e+7 
        4798.66      2.68039e+7 
        4813.65      2.65627e+7 
        4828.65      2.61271e+7 
        4839.16       2.5452e+7 
        4849.43      2.36811e+7 
         4859.6      1.43028e+7 
         4869.6      2.20973e+7 
        4880.32       2.4847e+7 
        4893.63      2.56627e+7 
        4908.63       2.5879e+7 
         4921.7      2.58994e+7 
        4933.62      2.58672e+7 
        4948.62      2.57951e+7 
        4963.61      2.57068e+7 
        4978.61      2.56103e+7 
        4993.61      2.55091e+7 
         5008.6      2.54051e+7 
         5023.6      2.52994e+7 
        5038.59      2.51929e+7 
        5053.59      2.50858e+7 
        5068.59      2.49784e+7 
        5083.58       2.4871e+7 
        5098.58      2.47636e+7 
        5113.57      2.46562e+7 
        5128.57       2.4549e+7 
        5143.57       2.4442e+7 
        5158.56      2.43352e+7 
        5173.56      2.42285e+7 
        5188.55      2.41221e+7 
        5203.55       2.4016e+7 
        5218.55      2.39101e+7 
        5233.54      2.38045e+7 
        5248.54      2.36991e+7 
        5263.53      2.35941e+7 
        5278.53      2.34893e+7 
        5293.52      2.33848e+7 
        5308.52      2.32806e+7 
        5323.52      2.31767e+7 
        5338.51      2.30731e+7 
        5353.51      2.29698e+7 
        5368.51      2.28675e+7 
         5383.5      2.27648e+7 
         5398.5      2.26624e+7 
        5413.49      2.25603e+7 
        5428.49      2.24586e+7 
        5443.48      2.23572e+7 
        5458.48      2.22562e+7 
        5473.48      2.21555e+7 
        5488.47      2.20552e+7 
        5503.47      2.19552e+7 
        5518.47      2.18556e+7 
        5533.46      2.17563e+7 
        5548.46      2.16573e+7 
        5563.45      2.15587e+7 
        5578.45      2.14605e+7 
        5593.44      2.13627e+7 
        5608.44      2.12652e+7 
        5623.44      2.11681e+7 
        5638.43      2.10713e+7 
        5653.43      2.09749e+7 
        5668.43      2.08789e+7 
        5682.86      2.07868e+7 
        5693.42      2.07197e+7 
        5704.77      2.06476e+7 
        5715.23      2.05815e+7 
        5728.41      2.04985e+7 
         5743.4      2.04043e+7 
         5758.4      2.03105e+7 
         5773.4      2.02145e+7 
        5788.39      2.01214e+7 
        5803.39      2.00287e+7 
        5818.39      1.99363e+7 
        5833.38      1.98443e+7 
        5848.38      1.97527e+7 
        5863.37      1.96615e+7 
        5878.37      1.95706e+7 
        5893.36      1.94801e+7 
        5908.36      1.93899e+7 
        5923.36      1.93002e+7 
        5938.35      1.92108e+7 
        5953.35      1.91218e+7 
        5968.34      1.90331e+7 
        5983.34      1.89448e+7 
        5998.34      1.88571e+7 
        6013.33      1.87696e+7 
        6028.33      1.86825e+7 
        6043.32      1.85957e+7 
        6058.32      1.85094e+7 
        6073.32      1.84233e+7 
        6088.31      1.83376e+7 
        6103.31      1.82523e+7 
         6118.3      1.81673e+7 
         6133.3      1.80826e+7 
         6148.3      1.79983e+7 
        6163.29      1.79143e+7 
        6178.29      1.78306e+7 
        6193.28      1.77472e+7 
        6208.28      1.76641e+7 
        6223.28      1.75813e+7 
        6238.27      1.74988e+7 
        6252.16      1.74225e+7 
        6262.16      1.73677e+7 
        6273.26      1.73069e+7 
        6284.63      1.72448e+7 
        6295.99      1.71828e+7 
        6306.09      1.71277e+7 
        6316.22      1.70724e+7 
        6328.25      1.70067e+7 
        6343.24      1.69247e+7 
        6358.24      1.68424e+7 
        6373.23      1.67596e+7 
        6388.23      1.66759e+7 
        6403.23      1.65908e+7 
        6418.22      1.65036e+7 
        6433.22      1.64131e+7 
        6448.22      1.63173e+7 
        6463.21      1.62129e+7 
        6478.21      1.60936e+7 
         6493.2      1.59469e+7 
         6508.2      1.57442e+7 
        6523.19      1.54124e+7 
        6537.09      1.47916e+7 
        6548.06      1.36409e+7 
        6558.19      1.05527e+7 
        6568.58      1.10675e+7 
        6579.16      1.37472e+7 
        6590.04      1.46486e+7 
        6603.34      1.50677e+7 
        6613.66      1.52026e+7 
        6623.98      1.52638e+7 
         6634.3      1.52852e+7 
        6644.62      1.52835e+7 
        6660.33      1.52556e+7 
         6685.9       1.5177e+7 
        6711.48      1.50794e+7 
        6762.62      1.48641e+7 
        6802.75      1.46888e+7 
        6813.77      1.46405e+7 
        6824.78      1.45921e+7 
        6846.81      1.44959e+7 
        6890.86      1.43042e+7 
        6978.98      1.39257e+7 
        7025.03      1.37311e+7 
        7067.09      1.35557e+7 
        7109.15      1.33823e+7 
        7193.26      1.30446e+7 
        7277.38      1.27155e+7 
        7329.48      1.25158e+7 
         7361.5      1.23947e+7 
        7393.51      1.22756e+7 
        7457.55      1.20411e+7 
        7521.58      1.18113e+7 
        7585.61       1.1586e+7 
        7621.41       1.1462e+7 
        7649.65      1.13652e+7 
        7677.88      1.12693e+7 
        7734.35      1.10815e+7 
        7790.83       1.0897e+7 
         7847.3      1.07158e+7 
        7903.77      1.05377e+7 
        7958.24       1.0369e+7 
        7974.27      1.03201e+7 
         7990.3      1.02716e+7 
        8022.35      1.01751e+7 
        8082.55       9.9967e+6 
        8142.75      9.82219e+6 
        8200.85      9.65688e+6 
        8216.85      9.61205e+6 
        8232.84      9.56747e+6 
        8264.83        9.479e+6 
        8289.72      9.41083e+6 
        8328.82      9.30474e+6 
        8343.44      9.26537e+6 
        8367.92      9.19993e+6 
        8388.68      9.14508e+6 
        8408.65      9.09271e+6 
        8432.02       9.0318e+6 
        8467.25      8.94056e+6 
        8502.48      8.85021e+6 
        8516.58      8.81518e+6 
        8530.98      8.77877e+6 
        8545.38       8.7417e+6 
        8574.18      8.67262e+6 
        8598.39      8.60994e+6 
         8628.6      8.54064e+6 
        8646.81      8.49634e+6 
        8665.01      8.44532e+6 
        8701.43      8.36716e+6 
        8725.22      8.31005e+6 
        8737.85      8.27803e+6 
        8750.47       8.2349e+6 
        8775.71      8.19271e+6 
        8786.57      8.16858e+6 
        8800.96      8.13575e+6 
        8815.35       8.1022e+6 
        8825.48      8.07857e+6 
        8844.13      8.03252e+6 
        8858.12      7.98671e+6 
        8872.11      7.96384e+6 
        8886.09      7.94182e+6 
        8914.07      7.88587e+6 
        8951.37      7.80466e+6 
        8967.25      7.76793e+6 
        8983.14      7.72863e+6 
        8999.02      7.68352e+6 
        9010.94      7.62923e+6 
        9022.85      7.61864e+6 
        9036.75      7.60935e+6 
        9060.58       7.5719e+6 
        9084.98      7.52609e+6 
        9099.72      7.49697e+6 
        9114.46      7.46725e+6 
        9143.94      7.40599e+6 
        9176.79      7.33194e+6 
        9189.85      7.29864e+6 
         9202.9      7.26025e+6 
        9215.95      7.20958e+6 
        9227.38      7.10324e+6 
        9237.98      7.14841e+6 
        9260.83      7.15215e+6 
        9273.88       7.1376e+6 
        9286.94      7.11904e+6 
        9313.05      7.07578e+6 
        9346.45      7.01549e+6 
        9365.26      6.98065e+6 
        9384.08      6.94553e+6 
        9421.72      6.87478e+6 
        9448.03      6.82398e+6 
        9472.51       6.7739e+6 
        9484.75       6.7466e+6 
           9497      6.71619e+6 
        9509.24      6.67987e+6 
        9521.48      6.63165e+6 
        9533.72      6.55726e+6 
        9544.43      6.37382e+6 
        9557.44      6.50351e+6 
        9569.68      6.54058e+6 
        9581.93      6.54824e+6 
        9593.34      6.54321e+6 
        9606.41       6.5304e+6 
         9630.9      6.49713e+6 
        9668.45      6.43781e+6 
        9743.56      6.31391e+6 
        9818.67      6.19045e+6 
        9834.75      6.16418e+6 
        9893.79       6.0677e+6 
         9923.3      6.01822e+6 
        9952.82      5.96607e+6 
        9974.34       5.9246e+6 
        9993.09      5.88194e+6 
        10011.9      5.82442e+6 
        10025.9        5.757e+6 
        10037.6      5.65245e+6 
        10048.2      5.32506e+6 
        10060.5      5.59954e+6 
        10074.6      5.68707e+6 
        10093.3      5.71248e+6 
        10118.3      5.70347e+6 
        10140.2      5.68163e+6 
        10177.7      5.63485e+6 
        10237.2       5.5533e+6 
        10296.6      5.47193e+6 
        10356.1      5.39119e+6 
        10415.6      5.31165e+6 
          10475      5.23305e+6 
        10534.5      5.15592e+6 
        10593.9      5.08002e+6 
        10653.4      5.00503e+6 
        10712.9      4.93064e+6 
        10772.3      4.85555e+6 
          10802      4.81672e+6 
        10831.8      4.77519e+6 
        10844.4      4.75584e+6 
        10861.5      4.72653e+6 
        10879.5      4.68782e+6 
        10891.2       4.6544e+6 
        10902.9      4.60812e+6 
        10914.7      4.53454e+6 
        10924.9      4.41378e+6 
        10935.2      4.06098e+6 
        10945.8      4.24646e+6 
        10957.5      4.44259e+6 
        10972.1      4.52125e+6 
        10989.7      4.54978e+6 
        11001.4      4.55339e+6 
        11013.1      4.55132e+6 
        11036.5      4.53762e+6 
          11060      4.51818e+6 
        11106.8      4.47256e+6 
        11140.1      4.43832e+6 
        11200.5      4.37511e+6 
        11260.9      4.31202e+6 
        11321.3      4.25177e+6 
        11381.7      4.19233e+6 
        11442.1      4.13399e+6 
        11502.4      4.07628e+6 
        11562.8      4.01948e+6 
        11623.2      3.96356e+6 
        11683.6      3.90855e+6 
          11744      3.85439e+6 
        11804.4      3.80111e+6 
        11864.7      3.74864e+6 
        11925.1      3.69703e+6 
        11985.5       3.6462e+6 
        12045.9      3.59599e+6 
        12106.3      3.54673e+6 
        12166.6      3.49823e+6 
          12227      3.45044e+6 
        12284.6      3.40552e+6 
        12342.2      3.36273e+6 
        12399.8      3.32035e+6 
        12457.4      3.27831e+6 
          12515       3.2365e+6 
        12572.6      3.19437e+6 
        12630.2      3.15086e+6 
          12659      3.12755e+6 
        12687.8      3.10197e+6 
        12716.6      3.07142e+6 
          12731      3.05259e+6 
        12745.4      3.02937e+6 
        12759.8      2.99867e+6 
        12774.2      2.95417e+6 
          12785       2.9043e+6 
        12795.8      2.82372e+6 
        12806.6      2.66238e+6 
        12816.8      2.17782e+6 
        12826.8      2.55549e+6 
        12838.8      2.77095e+6 
        12854.8       2.8717e+6 
        12867.6      2.90713e+6 
        12880.4      2.92546e+6 
        12893.2      2.93467e+6 
          12906      2.93826e+6 
        12931.6      2.93638e+6 
        12957.2      2.92811e+6 
        12982.8      2.91675e+6 
